May 7, 2026   15:59:59
Differential Pulse Voltammetry
File: dpv_mecn_co2_0.1mtbapf6_3mmfc_1mmfe-tpypy2me_-0.7_to_-1.2v
Data Source:  Experiment
Instrument Model:  CHI660D
Header: 
Note: 

Init E (V) = -0.7
Final E (V) = -1.2
Incr E (V) = 0.001
Amplitude (V) = 0.01
Pulse Width (sec) = 0.05
Sample Width (sec) = 0.0167
Pulse Period (sec) = 0.5
Quiet Time (sec) = 5
Sensitivity (A/V) = 1e-5
Comp R (ohm) = 96.0

Results:

Channel 1:
Ep = -0.968V
ip = -1.205e-5A
Ap = -1.930e-6VA

Potential/V, Current/A

-0.701, -4.549e-7
-0.702, -4.559e-7
-0.703, -4.593e-7
-0.704, -4.610e-7
-0.705, -4.627e-7
-0.706, -4.654e-7
-0.707, -4.676e-7
-0.708, -4.728e-7
-0.709, -4.737e-7
-0.710, -4.755e-7
-0.711, -4.784e-7
-0.712, -4.812e-7
-0.713, -4.811e-7
-0.714, -4.852e-7
-0.715, -4.875e-7
-0.716, -4.894e-7
-0.717, -4.904e-7
-0.718, -4.892e-7
-0.719, -4.940e-7
-0.720, -4.969e-7
-0.721, -4.947e-7
-0.722, -4.983e-7
-0.723, -5.014e-7
-0.724, -5.013e-7
-0.725, -5.045e-7
-0.726, -5.063e-7
-0.727, -5.080e-7
-0.728, -5.122e-7
-0.729, -5.121e-7
-0.730, -5.143e-7
-0.731, -5.171e-7
-0.732, -5.201e-7
-0.733, -5.222e-7
-0.734, -5.284e-7
-0.735, -5.264e-7
-0.736, -5.321e-7
-0.737, -5.319e-7
-0.738, -5.335e-7
-0.739, -5.391e-7
-0.740, -5.393e-7
-0.741, -5.394e-7
-0.742, -5.398e-7
-0.743, -5.442e-7
-0.744, -5.440e-7
-0.745, -5.472e-7
-0.746, -5.482e-7
-0.747, -5.470e-7
-0.748, -5.500e-7
-0.749, -5.509e-7
-0.750, -5.530e-7
-0.751, -5.545e-7
-0.752, -5.601e-7
-0.753, -5.594e-7
-0.754, -5.611e-7
-0.755, -5.686e-7
-0.756, -5.698e-7
-0.757, -5.711e-7
-0.758, -5.752e-7
-0.759, -5.779e-7
-0.760, -5.806e-7
-0.761, -5.831e-7
-0.762, -5.871e-7
-0.763, -5.909e-7
-0.764, -5.957e-7
-0.765, -5.938e-7
-0.766, -6.014e-7
-0.767, -6.076e-7
-0.768, -6.104e-7
-0.769, -6.151e-7
-0.770, -6.176e-7
-0.771, -6.206e-7
-0.772, -6.217e-7
-0.773, -6.246e-7
-0.774, -6.272e-7
-0.775, -6.312e-7
-0.776, -6.364e-7
-0.777, -6.355e-7
-0.778, -6.371e-7
-0.779, -6.435e-7
-0.780, -6.440e-7
-0.781, -6.458e-7
-0.782, -6.520e-7
-0.783, -6.502e-7
-0.784, -6.555e-7
-0.785, -6.554e-7
-0.786, -6.554e-7
-0.787, -6.605e-7
-0.788, -6.621e-7
-0.789, -6.635e-7
-0.790, -6.684e-7
-0.791, -6.701e-7
-0.792, -6.761e-7
-0.793, -6.789e-7
-0.794, -6.850e-7
-0.795, -6.871e-7
-0.796, -6.963e-7
-0.797, -7.026e-7
-0.798, -7.096e-7
-0.799, -7.227e-7
-0.800, -7.333e-7
-0.801, -7.449e-7
-0.802, -7.588e-7
-0.803, -7.798e-7
-0.804, -7.952e-7
-0.805, -8.119e-7
-0.806, -8.373e-7
-0.807, -8.584e-7
-0.808, -8.854e-7
-0.809, -9.080e-7
-0.810, -9.317e-7
-0.811, -9.562e-7
-0.812, -9.829e-7
-0.813, -1.011e-6
-0.814, -1.047e-6
-0.815, -1.079e-6
-0.816, -1.115e-6
-0.817, -1.145e-6
-0.818, -1.187e-6
-0.819, -1.229e-6
-0.820, -1.264e-6
-0.821, -1.313e-6
-0.822, -1.355e-6
-0.823, -1.392e-6
-0.824, -1.445e-6
-0.825, -1.485e-6
-0.826, -1.538e-6
-0.827, -1.588e-6
-0.828, -1.641e-6
-0.829, -1.695e-6
-0.830, -1.741e-6
-0.831, -1.800e-6
-0.832, -1.866e-6
-0.833, -1.927e-6
-0.834, -1.988e-6
-0.835, -2.059e-6
-0.836, -2.132e-6
-0.837, -2.196e-6
-0.838, -2.267e-6
-0.839, -2.334e-6
-0.840, -2.414e-6
-0.841, -2.482e-6
-0.842, -2.568e-6
-0.843, -2.649e-6
-0.844, -2.728e-6
-0.845, -2.810e-6
-0.846, -2.890e-6
-0.847, -2.982e-6
-0.848, -3.085e-6
-0.849, -3.159e-6
-0.850, -3.260e-6
-0.851, -3.366e-6
-0.852, -3.466e-6
-0.853, -3.560e-6
-0.854, -3.675e-6
-0.855, -3.787e-6
-0.856, -3.910e-6
-0.857, -4.023e-6
-0.858, -4.141e-6
-0.859, -4.292e-6
-0.860, -4.403e-6
-0.861, -4.539e-6
-0.862, -4.644e-6
-0.863, -4.783e-6
-0.864, -4.927e-6
-0.865, -5.065e-6
-0.866, -5.192e-6
-0.867, -5.359e-6
-0.868, -5.515e-6
-0.869, -5.648e-6
-0.870, -5.793e-6
-0.871, -5.973e-6
-0.872, -6.128e-6
-0.873, -6.266e-6
-0.874, -6.435e-6
-0.875, -6.596e-6
-0.876, -6.741e-6
-0.877, -6.904e-6
-0.878, -7.052e-6
-0.879, -7.236e-6
-0.880, -7.390e-6
-0.881, -7.540e-6
-0.882, -7.716e-6
-0.883, -7.921e-6
-0.884, -8.068e-6
-0.885, -8.237e-6
-0.886, -8.403e-6
-0.887, -8.593e-6
-0.888, -8.803e-6
-0.889, -8.931e-6
-0.890, -9.108e-6
-0.891, -9.315e-6
-0.892, -9.446e-6
-0.893, -9.574e-6
-0.894, -9.744e-6
-0.895, -9.899e-6
-0.896, -1.009e-5
-0.897, -1.012e-5
-0.898, -1.026e-5
-0.899, -1.045e-5
-0.900, -1.052e-5
-0.901, -1.066e-5
-0.902, -1.076e-5
-0.903, -1.089e-5
-0.904, -1.102e-5
-0.905, -1.111e-5
-0.906, -1.119e-5
-0.907, -1.132e-5
-0.908, -1.141e-5
-0.909, -1.152e-5
-0.910, -1.161e-5
-0.911, -1.169e-5
-0.912, -1.179e-5
-0.913, -1.185e-5
-0.914, -1.194e-5
-0.915, -1.203e-5
-0.916, -1.208e-5
-0.917, -1.208e-5
-0.918, -1.212e-5
-0.919, -1.221e-5
-0.920, -1.223e-5
-0.921, -1.223e-5
-0.922, -1.224e-5
-0.923, -1.225e-5
-0.924, -1.230e-5
-0.925, -1.228e-5
-0.926, -1.227e-5
-0.927, -1.224e-5
-0.928, -1.227e-5
-0.929, -1.225e-5
-0.930, -1.226e-5
-0.931, -1.229e-5
-0.932, -1.229e-5
-0.933, -1.222e-5
-0.934, -1.227e-5
-0.935, -1.226e-5
-0.936, -1.234e-5
-0.937, -1.222e-5
-0.938, -1.228e-5
-0.939, -1.234e-5
-0.940, -1.235e-5
-0.941, -1.234e-5
-0.942, -1.232e-5
-0.943, -1.233e-5
-0.944, -1.237e-5
-0.945, -1.232e-5
-0.946, -1.233e-5
-0.947, -1.240e-5
-0.948, -1.235e-5
-0.949, -1.228e-5
-0.950, -1.229e-5
-0.951, -1.223e-5
-0.952, -1.227e-5
-0.953, -1.225e-5
-0.954, -1.228e-5
-0.955, -1.231e-5
-0.956, -1.230e-5
-0.957, -1.229e-5
-0.958, -1.227e-5
-0.959, -1.235e-5
-0.960, -1.235e-5
-0.961, -1.237e-5
-0.962, -1.241e-5
-0.963, -1.245e-5
-0.964, -1.244e-5
-0.965, -1.242e-5
-0.966, -1.240e-5
-0.967, -1.242e-5
-0.968, -1.249e-5
-0.969, -1.240e-5
-0.970, -1.242e-5
-0.971, -1.245e-5
-0.972, -1.244e-5
-0.973, -1.239e-5
-0.974, -1.238e-5
-0.975, -1.236e-5
-0.976, -1.239e-5
-0.977, -1.233e-5
-0.978, -1.228e-5
-0.979, -1.228e-5
-0.980, -1.222e-5
-0.981, -1.216e-5
-0.982, -1.213e-5
-0.983, -1.210e-5
-0.984, -1.204e-5
-0.985, -1.194e-5
-0.986, -1.190e-5
-0.987, -1.191e-5
-0.988, -1.180e-5
-0.989, -1.173e-5
-0.990, -1.166e-5
-0.991, -1.157e-5
-0.992, -1.150e-5
-0.993, -1.137e-5
-0.994, -1.127e-5
-0.995, -1.117e-5
-0.996, -1.104e-5
-0.997, -1.092e-5
-0.998, -1.075e-5
-0.999, -1.065e-5
-1.000, -1.052e-5
-1.001, -1.033e-5
-1.002, -1.021e-5
-1.003, -1.007e-5
-1.004, -9.905e-6
-1.005, -9.742e-6
-1.006, -9.583e-6
-1.007, -9.440e-6
-1.008, -9.288e-6
-1.009, -9.119e-6
-1.010, -8.974e-6
-1.011, -8.847e-6
-1.012, -8.662e-6
-1.013, -8.532e-6
-1.014, -8.329e-6
-1.015, -8.148e-6
-1.016, -7.975e-6
-1.017, -7.782e-6
-1.018, -7.639e-6
-1.019, -7.495e-6
-1.020, -7.311e-6
-1.021, -7.166e-6
-1.022, -6.994e-6
-1.023, -6.847e-6
-1.024, -6.713e-6
-1.025, -6.580e-6
-1.026, -6.431e-6
-1.027, -6.282e-6
-1.028, -6.108e-6
-1.029, -5.941e-6
-1.030, -5.828e-6
-1.031, -5.647e-6
-1.032, -5.526e-6
-1.033, -5.378e-6
-1.034, -5.245e-6
-1.035, -5.116e-6
-1.036, -4.979e-6
-1.037, -4.845e-6
-1.038, -4.727e-6
-1.039, -4.622e-6
-1.040, -4.495e-6
-1.041, -4.380e-6
-1.042, -4.253e-6
-1.043, -4.159e-6
-1.044, -4.030e-6
-1.045, -3.915e-6
-1.046, -3.808e-6
-1.047, -3.714e-6
-1.048, -3.622e-6
-1.049, -3.506e-6
-1.050, -3.409e-6
-1.051, -3.302e-6
-1.052, -3.201e-6
-1.053, -3.107e-6
-1.054, -3.027e-6
-1.055, -2.936e-6
-1.056, -2.859e-6
-1.057, -2.781e-6
-1.058, -2.693e-6
-1.059, -2.630e-6
-1.060, -2.555e-6
-1.061, -2.488e-6
-1.062, -2.411e-6
-1.063, -2.347e-6
-1.064, -2.298e-6
-1.065, -2.228e-6
-1.066, -2.162e-6
-1.067, -2.100e-6
-1.068, -2.043e-6
-1.069, -1.983e-6
-1.070, -1.932e-6
-1.071, -1.884e-6
-1.072, -1.833e-6
-1.073, -1.774e-6
-1.074, -1.739e-6
-1.075, -1.689e-6
-1.076, -1.638e-6
-1.077, -1.599e-6
-1.078, -1.556e-6
-1.079, -1.515e-6
-1.080, -1.481e-6
-1.081, -1.429e-6
-1.082, -1.396e-6
-1.083, -1.362e-6
-1.084, -1.331e-6
-1.085, -1.291e-6
-1.086, -1.269e-6
-1.087, -1.232e-6
-1.088, -1.208e-6
-1.089, -1.177e-6
-1.090, -1.146e-6
-1.091, -1.126e-6
-1.092, -1.094e-6
-1.093, -1.071e-6
-1.094, -1.046e-6
-1.095, -1.021e-6
-1.096, -1.003e-6
-1.097, -9.730e-7
-1.098, -9.526e-7
-1.099, -9.380e-7
-1.100, -9.123e-7
-1.101, -8.934e-7
-1.102, -8.708e-7
-1.103, -8.553e-7
-1.104, -8.377e-7
-1.105, -8.149e-7
-1.106, -8.009e-7
-1.107, -7.842e-7
-1.108, -7.652e-7
-1.109, -7.535e-7
-1.110, -7.338e-7
-1.111, -7.263e-7
-1.112, -7.107e-7
-1.113, -6.926e-7
-1.114, -6.830e-7
-1.115, -6.719e-7
-1.116, -6.595e-7
-1.117, -6.429e-7
-1.118, -6.386e-7
-1.119, -6.288e-7
-1.120, -6.181e-7
-1.121, -6.098e-7
-1.122, -5.946e-7
-1.123, -5.891e-7
-1.124, -5.768e-7
-1.125, -5.641e-7
-1.126, -5.617e-7
-1.127, -5.515e-7
-1.128, -5.405e-7
-1.129, -5.353e-7
-1.130, -5.242e-7
-1.131, -5.185e-7
-1.132, -5.105e-7
-1.133, -5.046e-7
-1.134, -4.976e-7
-1.135, -4.914e-7
-1.136, -4.831e-7
-1.137, -4.753e-7
-1.138, -4.707e-7
-1.139, -4.670e-7
-1.140, -4.607e-7
-1.141, -4.584e-7
-1.142, -4.519e-7
-1.143, -4.493e-7
-1.144, -4.484e-7
-1.145, -4.421e-7
-1.146, -4.362e-7
-1.147, -4.324e-7
-1.148, -4.257e-7
-1.149, -4.170e-7
-1.150, -4.126e-7
-1.151, -4.116e-7
-1.152, -4.038e-7
-1.153, -3.967e-7
-1.154, -3.991e-7
-1.155, -3.936e-7
-1.156, -3.901e-7
-1.157, -3.836e-7
-1.158, -3.830e-7
-1.159, -3.796e-7
-1.160, -3.769e-7
-1.161, -3.703e-7
-1.162, -3.630e-7
-1.163, -3.631e-7
-1.164, -3.627e-7
-1.165, -3.574e-7
-1.166, -3.540e-7
-1.167, -3.494e-7
-1.168, -3.499e-7
-1.169, -3.440e-7
-1.170, -3.456e-7
-1.171, -3.415e-7
-1.172, -3.395e-7
-1.173, -3.378e-7
-1.174, -3.345e-7
-1.175, -3.329e-7
-1.176, -3.310e-7
-1.177, -3.218e-7
-1.178, -3.253e-7
-1.179, -3.249e-7
-1.180, -3.172e-7
-1.181, -3.174e-7
-1.182, -3.147e-7
-1.183, -3.125e-7
-1.184, -3.116e-7
-1.185, -3.113e-7
-1.186, -3.075e-7
-1.187, -3.101e-7
-1.188, -3.021e-7
-1.189, -3.021e-7
-1.190, -3.012e-7
-1.191, -3.017e-7
-1.192, -2.983e-7
-1.193, -2.962e-7
-1.194, -2.958e-7
-1.195, -2.976e-7
-1.196, -2.957e-7
-1.197, -2.928e-7
-1.198, -2.909e-7
-1.199, -2.941e-7
-1.200, -2.906e-7
