May 7, 2026   15:21:34
Differential Pulse Voltammetry
File: dpv_mecn_ar_0.1mtbapf6_3mmfc_1mmfe-tpypy2me_-0.7_to_-1.2v
Data Source:  Experiment
Instrument Model:  CHI660D
Header: 
Note: 

Init E (V) = -0.7
Final E (V) = -1.2
Incr E (V) = 0.001
Amplitude (V) = 0.01
Pulse Width (sec) = 0.05
Sample Width (sec) = 0.0167
Pulse Period (sec) = 0.5
Quiet Time (sec) = 5
Sensitivity (A/V) = 1e-5
Comp R (ohm) = 118.1

Results:

Channel 1:
Ep = -0.972V
ip = -1.056e-5A
Ap = -1.741e-6VA

Potential/V, Current/A

-0.701, -5.540e-7
-0.702, -5.504e-7
-0.703, -5.504e-7
-0.704, -5.482e-7
-0.705, -5.446e-7
-0.706, -5.418e-7
-0.707, -5.400e-7
-0.708, -5.349e-7
-0.709, -5.339e-7
-0.710, -5.304e-7
-0.711, -5.284e-7
-0.712, -5.304e-7
-0.713, -5.205e-7
-0.714, -5.225e-7
-0.715, -5.222e-7
-0.716, -5.185e-7
-0.717, -5.142e-7
-0.718, -5.125e-7
-0.719, -5.153e-7
-0.720, -5.138e-7
-0.721, -5.057e-7
-0.722, -5.074e-7
-0.723, -5.050e-7
-0.724, -5.076e-7
-0.725, -5.074e-7
-0.726, -5.040e-7
-0.727, -5.040e-7
-0.728, -5.053e-7
-0.729, -5.033e-7
-0.730, -5.019e-7
-0.731, -5.044e-7
-0.732, -5.049e-7
-0.733, -5.037e-7
-0.734, -5.076e-7
-0.735, -5.073e-7
-0.736, -5.084e-7
-0.737, -5.075e-7
-0.738, -5.081e-7
-0.739, -5.127e-7
-0.740, -5.113e-7
-0.741, -5.104e-7
-0.742, -5.097e-7
-0.743, -5.130e-7
-0.744, -5.154e-7
-0.745, -5.136e-7
-0.746, -5.138e-7
-0.747, -5.211e-7
-0.748, -5.150e-7
-0.749, -5.196e-7
-0.750, -5.234e-7
-0.751, -5.210e-7
-0.752, -5.229e-7
-0.753, -5.251e-7
-0.754, -5.235e-7
-0.755, -5.321e-7
-0.756, -5.320e-7
-0.757, -5.348e-7
-0.758, -5.384e-7
-0.759, -5.366e-7
-0.760, -5.417e-7
-0.761, -5.466e-7
-0.762, -5.489e-7
-0.763, -5.498e-7
-0.764, -5.561e-7
-0.765, -5.561e-7
-0.766, -5.607e-7
-0.767, -5.657e-7
-0.768, -5.713e-7
-0.769, -5.706e-7
-0.770, -5.762e-7
-0.771, -5.804e-7
-0.772, -5.826e-7
-0.773, -5.865e-7
-0.774, -5.912e-7
-0.775, -5.969e-7
-0.776, -6.053e-7
-0.777, -6.071e-7
-0.778, -6.146e-7
-0.779, -6.204e-7
-0.780, -6.286e-7
-0.781, -6.289e-7
-0.782, -6.447e-7
-0.783, -6.515e-7
-0.784, -6.611e-7
-0.785, -6.726e-7
-0.786, -6.801e-7
-0.787, -6.904e-7
-0.788, -6.988e-7
-0.789, -7.093e-7
-0.790, -7.224e-7
-0.791, -7.331e-7
-0.792, -7.499e-7
-0.793, -7.570e-7
-0.794, -7.740e-7
-0.795, -7.844e-7
-0.796, -8.005e-7
-0.797, -8.143e-7
-0.798, -8.291e-7
-0.799, -8.455e-7
-0.800, -8.651e-7
-0.801, -8.831e-7
-0.802, -8.992e-7
-0.803, -9.186e-7
-0.804, -9.466e-7
-0.805, -9.667e-7
-0.806, -9.872e-7
-0.807, -1.013e-6
-0.808, -1.041e-6
-0.809, -1.065e-6
-0.810, -1.087e-6
-0.811, -1.114e-6
-0.812, -1.141e-6
-0.813, -1.165e-6
-0.814, -1.196e-6
-0.815, -1.227e-6
-0.816, -1.261e-6
-0.817, -1.288e-6
-0.818, -1.318e-6
-0.819, -1.362e-6
-0.820, -1.393e-6
-0.821, -1.440e-6
-0.822, -1.475e-6
-0.823, -1.512e-6
-0.824, -1.558e-6
-0.825, -1.592e-6
-0.826, -1.637e-6
-0.827, -1.691e-6
-0.828, -1.731e-6
-0.829, -1.777e-6
-0.830, -1.820e-6
-0.831, -1.885e-6
-0.832, -1.936e-6
-0.833, -1.985e-6
-0.834, -2.040e-6
-0.835, -2.106e-6
-0.836, -2.178e-6
-0.837, -2.230e-6
-0.838, -2.296e-6
-0.839, -2.352e-6
-0.840, -2.432e-6
-0.841, -2.492e-6
-0.842, -2.572e-6
-0.843, -2.641e-6
-0.844, -2.712e-6
-0.845, -2.787e-6
-0.846, -2.849e-6
-0.847, -2.946e-6
-0.848, -3.030e-6
-0.849, -3.094e-6
-0.850, -3.188e-6
-0.851, -3.285e-6
-0.852, -3.375e-6
-0.853, -3.465e-6
-0.854, -3.558e-6
-0.855, -3.673e-6
-0.856, -3.772e-6
-0.857, -3.862e-6
-0.858, -3.976e-6
-0.859, -4.099e-6
-0.860, -4.217e-6
-0.861, -4.323e-6
-0.862, -4.429e-6
-0.863, -4.553e-6
-0.864, -4.668e-6
-0.865, -4.782e-6
-0.866, -4.915e-6
-0.867, -5.039e-6
-0.868, -5.155e-6
-0.869, -5.292e-6
-0.870, -5.412e-6
-0.871, -5.566e-6
-0.872, -5.708e-6
-0.873, -5.828e-6
-0.874, -5.965e-6
-0.875, -6.109e-6
-0.876, -6.230e-6
-0.877, -6.369e-6
-0.878, -6.501e-6
-0.879, -6.638e-6
-0.880, -6.798e-6
-0.881, -6.930e-6
-0.882, -7.065e-6
-0.883, -7.237e-6
-0.884, -7.371e-6
-0.885, -7.529e-6
-0.886, -7.671e-6
-0.887, -7.854e-6
-0.888, -7.994e-6
-0.889, -8.085e-6
-0.890, -8.235e-6
-0.891, -8.390e-6
-0.892, -8.505e-6
-0.893, -8.637e-6
-0.894, -8.755e-6
-0.895, -8.892e-6
-0.896, -9.036e-6
-0.897, -9.085e-6
-0.898, -9.177e-6
-0.899, -9.332e-6
-0.900, -9.406e-6
-0.901, -9.486e-6
-0.902, -9.565e-6
-0.903, -9.689e-6
-0.904, -9.826e-6
-0.905, -9.859e-6
-0.906, -9.980e-6
-0.907, -1.005e-5
-0.908, -1.008e-5
-0.909, -1.015e-5
-0.910, -1.022e-5
-0.911, -1.032e-5
-0.912, -1.040e-5
-0.913, -1.046e-5
-0.914, -1.048e-5
-0.915, -1.052e-5
-0.916, -1.057e-5
-0.917, -1.057e-5
-0.918, -1.064e-5
-0.919, -1.066e-5
-0.920, -1.070e-5
-0.921, -1.067e-5
-0.922, -1.068e-5
-0.923, -1.070e-5
-0.924, -1.072e-5
-0.925, -1.069e-5
-0.926, -1.065e-5
-0.927, -1.066e-5
-0.928, -1.071e-5
-0.929, -1.066e-5
-0.930, -1.068e-5
-0.931, -1.066e-5
-0.932, -1.069e-5
-0.933, -1.062e-5
-0.934, -1.065e-5
-0.935, -1.063e-5
-0.936, -1.068e-5
-0.937, -1.064e-5
-0.938, -1.068e-5
-0.939, -1.072e-5
-0.940, -1.070e-5
-0.941, -1.065e-5
-0.942, -1.067e-5
-0.943, -1.066e-5
-0.944, -1.072e-5
-0.945, -1.069e-5
-0.946, -1.066e-5
-0.947, -1.069e-5
-0.948, -1.067e-5
-0.949, -1.059e-5
-0.950, -1.063e-5
-0.951, -1.063e-5
-0.952, -1.069e-5
-0.953, -1.066e-5
-0.954, -1.067e-5
-0.955, -1.072e-5
-0.956, -1.068e-5
-0.957, -1.070e-5
-0.958, -1.075e-5
-0.959, -1.078e-5
-0.960, -1.074e-5
-0.961, -1.079e-5
-0.962, -1.082e-5
-0.963, -1.088e-5
-0.964, -1.086e-5
-0.965, -1.086e-5
-0.966, -1.091e-5
-0.967, -1.092e-5
-0.968, -1.096e-5
-0.969, -1.096e-5
-0.970, -1.095e-5
-0.971, -1.099e-5
-0.972, -1.099e-5
-0.973, -1.093e-5
-0.974, -1.099e-5
-0.975, -1.099e-5
-0.976, -1.097e-5
-0.977, -1.093e-5
-0.978, -1.091e-5
-0.979, -1.093e-5
-0.980, -1.089e-5
-0.981, -1.089e-5
-0.982, -1.079e-5
-0.983, -1.079e-5
-0.984, -1.079e-5
-0.985, -1.071e-5
-0.986, -1.065e-5
-0.987, -1.066e-5
-0.988, -1.060e-5
-0.989, -1.050e-5
-0.990, -1.049e-5
-0.991, -1.044e-5
-0.992, -1.036e-5
-0.993, -1.025e-5
-0.994, -1.017e-5
-0.995, -1.009e-5
-0.996, -9.983e-6
-0.997, -9.855e-6
-0.998, -9.769e-6
-0.999, -9.706e-6
-1.000, -9.536e-6
-1.001, -9.406e-6
-1.002, -9.268e-6
-1.003, -9.153e-6
-1.004, -9.018e-6
-1.005, -8.861e-6
-1.006, -8.758e-6
-1.007, -8.628e-6
-1.008, -8.520e-6
-1.009, -8.342e-6
-1.010, -8.203e-6
-1.011, -8.075e-6
-1.012, -7.963e-6
-1.013, -7.815e-6
-1.014, -7.669e-6
-1.015, -7.484e-6
-1.016, -7.358e-6
-1.017, -7.175e-6
-1.018, -7.040e-6
-1.019, -6.911e-6
-1.020, -6.767e-6
-1.021, -6.615e-6
-1.022, -6.486e-6
-1.023, -6.327e-6
-1.024, -6.186e-6
-1.025, -6.101e-6
-1.026, -5.966e-6
-1.027, -5.844e-6
-1.028, -5.674e-6
-1.029, -5.553e-6
-1.030, -5.425e-6
-1.031, -5.289e-6
-1.032, -5.172e-6
-1.033, -5.026e-6
-1.034, -4.899e-6
-1.035, -4.791e-6
-1.036, -4.666e-6
-1.037, -4.539e-6
-1.038, -4.435e-6
-1.039, -4.344e-6
-1.040, -4.216e-6
-1.041, -4.108e-6
-1.042, -4.016e-6
-1.043, -3.920e-6
-1.044, -3.808e-6
-1.045, -3.700e-6
-1.046, -3.615e-6
-1.047, -3.519e-6
-1.048, -3.437e-6
-1.049, -3.329e-6
-1.050, -3.236e-6
-1.051, -3.148e-6
-1.052, -3.065e-6
-1.053, -2.967e-6
-1.054, -2.882e-6
-1.055, -2.822e-6
-1.056, -2.747e-6
-1.057, -2.670e-6
-1.058, -2.582e-6
-1.059, -2.534e-6
-1.060, -2.466e-6
-1.061, -2.394e-6
-1.062, -2.335e-6
-1.063, -2.280e-6
-1.064, -2.222e-6
-1.065, -2.161e-6
-1.066, -2.107e-6
-1.067, -2.055e-6
-1.068, -1.999e-6
-1.069, -1.959e-6
-1.070, -1.898e-6
-1.071, -1.854e-6
-1.072, -1.805e-6
-1.073, -1.755e-6
-1.074, -1.712e-6
-1.075, -1.677e-6
-1.076, -1.632e-6
-1.077, -1.589e-6
-1.078, -1.552e-6
-1.079, -1.511e-6
-1.080, -1.484e-6
-1.081, -1.437e-6
-1.082, -1.409e-6
-1.083, -1.376e-6
-1.084, -1.344e-6
-1.085, -1.311e-6
-1.086, -1.281e-6
-1.087, -1.251e-6
-1.088, -1.225e-6
-1.089, -1.198e-6
-1.090, -1.173e-6
-1.091, -1.152e-6
-1.092, -1.128e-6
-1.093, -1.104e-6
-1.094, -1.078e-6
-1.095, -1.058e-6
-1.096, -1.031e-6
-1.097, -1.013e-6
-1.098, -9.913e-7
-1.099, -9.724e-7
-1.100, -9.524e-7
-1.101, -9.338e-7
-1.102, -9.083e-7
-1.103, -8.955e-7
-1.104, -8.780e-7
-1.105, -8.596e-7
-1.106, -8.400e-7
-1.107, -8.276e-7
-1.108, -8.112e-7
-1.109, -7.950e-7
-1.110, -7.837e-7
-1.111, -7.664e-7
-1.112, -7.545e-7
-1.113, -7.420e-7
-1.114, -7.272e-7
-1.115, -7.200e-7
-1.116, -7.065e-7
-1.117, -6.934e-7
-1.118, -6.841e-7
-1.119, -6.754e-7
-1.120, -6.620e-7
-1.121, -6.507e-7
-1.122, -6.414e-7
-1.123, -6.317e-7
-1.124, -6.211e-7
-1.125, -6.112e-7
-1.126, -6.020e-7
-1.127, -5.938e-7
-1.128, -5.837e-7
-1.129, -5.736e-7
-1.130, -5.627e-7
-1.131, -5.582e-7
-1.132, -5.499e-7
-1.133, -5.427e-7
-1.134, -5.362e-7
-1.135, -5.275e-7
-1.136, -5.251e-7
-1.137, -5.148e-7
-1.138, -5.029e-7
-1.139, -4.988e-7
-1.140, -4.919e-7
-1.141, -4.869e-7
-1.142, -4.814e-7
-1.143, -4.776e-7
-1.144, -4.733e-7
-1.145, -4.656e-7
-1.146, -4.586e-7
-1.147, -4.542e-7
-1.148, -4.520e-7
-1.149, -4.452e-7
-1.150, -4.376e-7
-1.151, -4.372e-7
-1.152, -4.312e-7
-1.153, -4.230e-7
-1.154, -4.205e-7
-1.155, -4.148e-7
-1.156, -4.081e-7
-1.157, -4.069e-7
-1.158, -4.014e-7
-1.159, -3.982e-7
-1.160, -3.945e-7
-1.161, -3.884e-7
-1.162, -3.852e-7
-1.163, -3.826e-7
-1.164, -3.789e-7
-1.165, -3.757e-7
-1.166, -3.732e-7
-1.167, -3.720e-7
-1.168, -3.687e-7
-1.169, -3.645e-7
-1.170, -3.626e-7
-1.171, -3.589e-7
-1.172, -3.571e-7
-1.173, -3.530e-7
-1.174, -3.504e-7
-1.175, -3.482e-7
-1.176, -3.438e-7
-1.177, -3.421e-7
-1.178, -3.377e-7
-1.179, -3.357e-7
-1.180, -3.366e-7
-1.181, -3.335e-7
-1.182, -3.290e-7
-1.183, -3.297e-7
-1.184, -3.260e-7
-1.185, -3.255e-7
-1.186, -3.224e-7
-1.187, -3.231e-7
-1.188, -3.172e-7
-1.189, -3.163e-7
-1.190, -3.150e-7
-1.191, -3.115e-7
-1.192, -3.131e-7
-1.193, -3.080e-7
-1.194, -3.084e-7
-1.195, -3.099e-7
-1.196, -3.053e-7
-1.197, -3.048e-7
-1.198, -3.046e-7
-1.199, -3.020e-7
-1.200, -3.013e-7
