May 7, 2026   16:37:02
Cyclic Voltammetry
File: mecn_co2_0.1mtbapf6_3mmfc_1mmfe-tpypy2me_560mmphoh_-1.2_to_1v_1
Data Source:  Experiment
Instrument Model:  CHI660D
Header: 
Note: 

Init E (V) = 0
High E (V) = 1
Low E (V) = -1.2
Final E (V) = 0
Init P/N = N
Scan Rate (V/s) = 0.1
Segment = 3
Sample Interval (V) = 0.001
Quiet Time (sec) = 2
Sensitivity (A/V) = 1e-4
Comp R (ohm) = 94.3

Results:

Channel 1:
Segment 1:
Ep = -1.044V
ip = -8.947e-5A
Ah = -1.101e-4C

Segment 2:
Ep = -0.878V
ip = 9.008e-5A
Ah = 8.631e-5C

Ep = 0.498V
ip = 1.584e-4A
Ah = 1.000e-4C

Segment 3:
Ep = 0.435V
ip = -1.644e-4A
Ah = -1.075e-4C

Potential/V, Current/A

0.000, -4.199e-6
-0.001, -4.269e-6
-0.002, -4.296e-6
-0.003, -4.312e-6
-0.004, -4.333e-6
-0.005, -4.344e-6
-0.006, -4.350e-6
-0.007, -4.363e-6
-0.008, -4.372e-6
-0.009, -4.384e-6
-0.010, -4.395e-6
-0.011, -4.394e-6
-0.012, -4.405e-6
-0.013, -4.407e-6
-0.014, -4.415e-6
-0.015, -4.419e-6
-0.016, -4.420e-6
-0.017, -4.426e-6
-0.018, -4.430e-6
-0.019, -4.434e-6
-0.020, -4.438e-6
-0.021, -4.438e-6
-0.022, -4.443e-6
-0.023, -4.449e-6
-0.024, -4.452e-6
-0.025, -4.458e-6
-0.026, -4.453e-6
-0.027, -4.457e-6
-0.028, -4.464e-6
-0.029, -4.465e-6
-0.030, -4.464e-6
-0.031, -4.467e-6
-0.032, -4.472e-6
-0.033, -4.475e-6
-0.034, -4.477e-6
-0.035, -4.476e-6
-0.036, -4.483e-6
-0.037, -4.488e-6
-0.038, -4.482e-6
-0.039, -4.490e-6
-0.040, -4.490e-6
-0.041, -4.490e-6
-0.042, -4.496e-6
-0.043, -4.496e-6
-0.044, -4.500e-6
-0.045, -4.497e-6
-0.046, -4.500e-6
-0.047, -4.507e-6
-0.048, -4.508e-6
-0.049, -4.508e-6
-0.050, -4.512e-6
-0.051, -4.509e-6
-0.052, -4.520e-6
-0.053, -4.520e-6
-0.054, -4.522e-6
-0.055, -4.526e-6
-0.056, -4.526e-6
-0.057, -4.531e-6
-0.058, -4.527e-6
-0.059, -4.532e-6
-0.060, -4.536e-6
-0.061, -4.533e-6
-0.062, -4.535e-6
-0.063, -4.537e-6
-0.064, -4.534e-6
-0.065, -4.539e-6
-0.066, -4.541e-6
-0.067, -4.546e-6
-0.068, -4.548e-6
-0.069, -4.553e-6
-0.070, -4.552e-6
-0.071, -4.557e-6
-0.072, -4.562e-6
-0.073, -4.562e-6
-0.074, -4.566e-6
-0.075, -4.570e-6
-0.076, -4.573e-6
-0.077, -4.577e-6
-0.078, -4.568e-6
-0.079, -4.576e-6
-0.080, -4.579e-6
-0.081, -4.578e-6
-0.082, -4.582e-6
-0.083, -4.578e-6
-0.084, -4.584e-6
-0.085, -4.588e-6
-0.086, -4.587e-6
-0.087, -4.591e-6
-0.088, -4.593e-6
-0.089, -4.593e-6
-0.090, -4.599e-6
-0.091, -4.599e-6
-0.092, -4.602e-6
-0.093, -4.605e-6
-0.094, -4.607e-6
-0.095, -4.612e-6
-0.096, -4.608e-6
-0.097, -4.613e-6
-0.098, -4.617e-6
-0.099, -4.618e-6
-0.100, -4.620e-6
-0.101, -4.621e-6
-0.102, -4.630e-6
-0.103, -4.631e-6
-0.104, -4.634e-6
-0.105, -4.632e-6
-0.106, -4.634e-6
-0.107, -4.640e-6
-0.108, -4.647e-6
-0.109, -4.647e-6
-0.110, -4.645e-6
-0.111, -4.649e-6
-0.112, -4.656e-6
-0.113, -4.658e-6
-0.114, -4.658e-6
-0.115, -4.654e-6
-0.116, -4.661e-6
-0.117, -4.666e-6
-0.118, -4.668e-6
-0.119, -4.672e-6
-0.120, -4.673e-6
-0.121, -4.674e-6
-0.122, -4.685e-6
-0.123, -4.681e-6
-0.124, -4.687e-6
-0.125, -4.689e-6
-0.126, -4.687e-6
-0.127, -4.698e-6
-0.128, -4.703e-6
-0.129, -4.699e-6
-0.130, -4.701e-6
-0.131, -4.703e-6
-0.132, -4.712e-6
-0.133, -4.712e-6
-0.134, -4.714e-6
-0.135, -4.718e-6
-0.136, -4.720e-6
-0.137, -4.724e-6
-0.138, -4.724e-6
-0.139, -4.725e-6
-0.140, -4.728e-6
-0.141, -4.729e-6
-0.142, -4.731e-6
-0.143, -4.735e-6
-0.144, -4.739e-6
-0.145, -4.740e-6
-0.146, -4.743e-6
-0.147, -4.744e-6
-0.148, -4.750e-6
-0.149, -4.755e-6
-0.150, -4.755e-6
-0.151, -4.757e-6
-0.152, -4.765e-6
-0.153, -4.763e-6
-0.154, -4.770e-6
-0.155, -4.771e-6
-0.156, -4.773e-6
-0.157, -4.779e-6
-0.158, -4.775e-6
-0.159, -4.786e-6
-0.160, -4.782e-6
-0.161, -4.785e-6
-0.162, -4.791e-6
-0.163, -4.794e-6
-0.164, -4.799e-6
-0.165, -4.801e-6
-0.166, -4.795e-6
-0.167, -4.806e-6
-0.168, -4.812e-6
-0.169, -4.817e-6
-0.170, -4.813e-6
-0.171, -4.816e-6
-0.172, -4.825e-6
-0.173, -4.828e-6
-0.174, -4.829e-6
-0.175, -4.830e-6
-0.176, -4.835e-6
-0.177, -4.838e-6
-0.178, -4.842e-6
-0.179, -4.852e-6
-0.180, -4.851e-6
-0.181, -4.852e-6
-0.182, -4.858e-6
-0.183, -4.862e-6
-0.184, -4.866e-6
-0.185, -4.866e-6
-0.186, -4.869e-6
-0.187, -4.875e-6
-0.188, -4.881e-6
-0.189, -4.885e-6
-0.190, -4.881e-6
-0.191, -4.889e-6
-0.192, -4.891e-6
-0.193, -4.895e-6
-0.194, -4.902e-6
-0.195, -4.897e-6
-0.196, -4.908e-6
-0.197, -4.913e-6
-0.198, -4.912e-6
-0.199, -4.922e-6
-0.200, -4.920e-6
-0.201, -4.926e-6
-0.202, -4.934e-6
-0.203, -4.932e-6
-0.204, -4.931e-6
-0.205, -4.931e-6
-0.206, -4.939e-6
-0.207, -4.951e-6
-0.208, -4.951e-6
-0.209, -4.955e-6
-0.210, -4.959e-6
-0.211, -4.965e-6
-0.212, -4.971e-6
-0.213, -4.975e-6
-0.214, -4.979e-6
-0.215, -4.982e-6
-0.216, -4.987e-6
-0.217, -4.988e-6
-0.218, -4.989e-6
-0.219, -4.996e-6
-0.220, -5.002e-6
-0.221, -5.004e-6
-0.222, -5.012e-6
-0.223, -5.013e-6
-0.224, -5.020e-6
-0.225, -5.020e-6
-0.226, -5.028e-6
-0.227, -5.034e-6
-0.228, -5.039e-6
-0.229, -5.044e-6
-0.230, -5.053e-6
-0.231, -5.056e-6
-0.232, -5.062e-6
-0.233, -5.063e-6
-0.234, -5.069e-6
-0.235, -5.068e-6
-0.236, -5.077e-6
-0.237, -5.082e-6
-0.238, -5.082e-6
-0.239, -5.090e-6
-0.240, -5.093e-6
-0.241, -5.096e-6
-0.242, -5.105e-6
-0.243, -5.102e-6
-0.244, -5.115e-6
-0.245, -5.119e-6
-0.246, -5.121e-6
-0.247, -5.130e-6
-0.248, -5.137e-6
-0.249, -5.142e-6
-0.250, -5.143e-6
-0.251, -5.150e-6
-0.252, -5.161e-6
-0.253, -5.160e-6
-0.254, -5.167e-6
-0.255, -5.171e-6
-0.256, -5.174e-6
-0.257, -5.184e-6
-0.258, -5.188e-6
-0.259, -5.194e-6
-0.260, -5.201e-6
-0.261, -5.202e-6
-0.262, -5.209e-6
-0.263, -5.213e-6
-0.264, -5.220e-6
-0.265, -5.221e-6
-0.266, -5.226e-6
-0.267, -5.234e-6
-0.268, -5.235e-6
-0.269, -5.239e-6
-0.270, -5.243e-6
-0.271, -5.249e-6
-0.272, -5.261e-6
-0.273, -5.261e-6
-0.274, -5.265e-6
-0.275, -5.271e-6
-0.276, -5.281e-6
-0.277, -5.285e-6
-0.278, -5.284e-6
-0.279, -5.294e-6
-0.280, -5.297e-6
-0.281, -5.309e-6
-0.282, -5.312e-6
-0.283, -5.311e-6
-0.284, -5.321e-6
-0.285, -5.322e-6
-0.286, -5.325e-6
-0.287, -5.339e-6
-0.288, -5.336e-6
-0.289, -5.345e-6
-0.290, -5.347e-6
-0.291, -5.352e-6
-0.292, -5.360e-6
-0.293, -5.360e-6
-0.294, -5.360e-6
-0.295, -5.374e-6
-0.296, -5.375e-6
-0.297, -5.380e-6
-0.298, -5.381e-6
-0.299, -5.390e-6
-0.300, -5.394e-6
-0.301, -5.397e-6
-0.302, -5.405e-6
-0.303, -5.407e-6
-0.304, -5.414e-6
-0.305, -5.416e-6
-0.306, -5.424e-6
-0.307, -5.435e-6
-0.308, -5.430e-6
-0.309, -5.441e-6
-0.310, -5.441e-6
-0.311, -5.450e-6
-0.312, -5.453e-6
-0.313, -5.455e-6
-0.314, -5.460e-6
-0.315, -5.464e-6
-0.316, -5.469e-6
-0.317, -5.474e-6
-0.318, -5.475e-6
-0.319, -5.483e-6
-0.320, -5.480e-6
-0.321, -5.487e-6
-0.322, -5.495e-6
-0.323, -5.497e-6
-0.324, -5.507e-6
-0.325, -5.508e-6
-0.326, -5.508e-6
-0.327, -5.519e-6
-0.328, -5.524e-6
-0.329, -5.528e-6
-0.330, -5.528e-6
-0.331, -5.533e-6
-0.332, -5.548e-6
-0.333, -5.547e-6
-0.334, -5.552e-6
-0.335, -5.554e-6
-0.336, -5.559e-6
-0.337, -5.567e-6
-0.338, -5.566e-6
-0.339, -5.571e-6
-0.340, -5.578e-6
-0.341, -5.581e-6
-0.342, -5.590e-6
-0.343, -5.589e-6
-0.344, -5.594e-6
-0.345, -5.592e-6
-0.346, -5.599e-6
-0.347, -5.606e-6
-0.348, -5.611e-6
-0.349, -5.616e-6
-0.350, -5.622e-6
-0.351, -5.624e-6
-0.352, -5.634e-6
-0.353, -5.634e-6
-0.354, -5.639e-6
-0.355, -5.642e-6
-0.356, -5.654e-6
-0.357, -5.660e-6
-0.358, -5.653e-6
-0.359, -5.665e-6
-0.360, -5.669e-6
-0.361, -5.677e-6
-0.362, -5.681e-6
-0.363, -5.682e-6
-0.364, -5.691e-6
-0.365, -5.694e-6
-0.366, -5.699e-6
-0.367, -5.705e-6
-0.368, -5.707e-6
-0.369, -5.713e-6
-0.370, -5.717e-6
-0.371, -5.716e-6
-0.372, -5.729e-6
-0.373, -5.729e-6
-0.374, -5.735e-6
-0.375, -5.742e-6
-0.376, -5.748e-6
-0.377, -5.754e-6
-0.378, -5.754e-6
-0.379, -5.763e-6
-0.380, -5.767e-6
-0.381, -5.771e-6
-0.382, -5.781e-6
-0.383, -5.778e-6
-0.384, -5.798e-6
-0.385, -5.796e-6
-0.386, -5.799e-6
-0.387, -5.805e-6
-0.388, -5.810e-6
-0.389, -5.819e-6
-0.390, -5.820e-6
-0.391, -5.827e-6
-0.392, -5.834e-6
-0.393, -5.836e-6
-0.394, -5.844e-6
-0.395, -5.847e-6
-0.396, -5.853e-6
-0.397, -5.857e-6
-0.398, -5.861e-6
-0.399, -5.870e-6
-0.400, -5.874e-6
-0.401, -5.877e-6
-0.402, -5.887e-6
-0.403, -5.888e-6
-0.404, -5.898e-6
-0.405, -5.904e-6
-0.406, -5.909e-6
-0.407, -5.917e-6
-0.408, -5.922e-6
-0.409, -5.907e-6
-0.410, -5.921e-6
-0.411, -5.933e-6
-0.412, -5.945e-6
-0.413, -5.943e-6
-0.414, -5.951e-6
-0.415, -5.954e-6
-0.416, -5.965e-6
-0.417, -5.974e-6
-0.418, -5.973e-6
-0.419, -5.983e-6
-0.420, -5.990e-6
-0.421, -6.002e-6
-0.422, -6.000e-6
-0.423, -6.007e-6
-0.424, -6.020e-6
-0.425, -6.020e-6
-0.426, -6.032e-6
-0.427, -6.040e-6
-0.428, -6.043e-6
-0.429, -6.048e-6
-0.430, -6.050e-6
-0.431, -6.069e-6
-0.432, -6.069e-6
-0.433, -6.074e-6
-0.434, -6.083e-6
-0.435, -6.098e-6
-0.436, -6.108e-6
-0.437, -6.112e-6
-0.438, -6.114e-6
-0.439, -6.125e-6
-0.440, -6.134e-6
-0.441, -6.144e-6
-0.442, -6.149e-6
-0.443, -6.154e-6
-0.444, -6.166e-6
-0.445, -6.172e-6
-0.446, -6.178e-6
-0.447, -6.185e-6
-0.448, -6.183e-6
-0.449, -6.199e-6
-0.450, -6.208e-6
-0.451, -6.217e-6
-0.452, -6.223e-6
-0.453, -6.229e-6
-0.454, -6.238e-6
-0.455, -6.249e-6
-0.456, -6.258e-6
-0.457, -6.264e-6
-0.458, -6.270e-6
-0.459, -6.281e-6
-0.460, -6.288e-6
-0.461, -6.298e-6
-0.462, -6.302e-6
-0.463, -6.316e-6
-0.464, -6.328e-6
-0.465, -6.333e-6
-0.466, -6.342e-6
-0.467, -6.346e-6
-0.468, -6.358e-6
-0.469, -6.372e-6
-0.470, -6.376e-6
-0.471, -6.387e-6
-0.472, -6.398e-6
-0.473, -6.395e-6
-0.474, -6.412e-6
-0.475, -6.415e-6
-0.476, -6.430e-6
-0.477, -6.439e-6
-0.478, -6.442e-6
-0.479, -6.456e-6
-0.480, -6.461e-6
-0.481, -6.473e-6
-0.482, -6.482e-6
-0.483, -6.488e-6
-0.484, -6.505e-6
-0.485, -6.509e-6
-0.486, -6.528e-6
-0.487, -6.532e-6
-0.488, -6.536e-6
-0.489, -6.544e-6
-0.490, -6.551e-6
-0.491, -6.565e-6
-0.492, -6.575e-6
-0.493, -6.579e-6
-0.494, -6.588e-6
-0.495, -6.597e-6
-0.496, -6.612e-6
-0.497, -6.615e-6
-0.498, -6.624e-6
-0.499, -6.627e-6
-0.500, -6.640e-6
-0.501, -6.654e-6
-0.502, -6.657e-6
-0.503, -6.663e-6
-0.504, -6.671e-6
-0.505, -6.679e-6
-0.506, -6.687e-6
-0.507, -6.694e-6
-0.508, -6.701e-6
-0.509, -6.708e-6
-0.510, -6.718e-6
-0.511, -6.726e-6
-0.512, -6.741e-6
-0.513, -6.738e-6
-0.514, -6.750e-6
-0.515, -6.754e-6
-0.516, -6.764e-6
-0.517, -6.770e-6
-0.518, -6.769e-6
-0.519, -6.783e-6
-0.520, -6.791e-6
-0.521, -6.794e-6
-0.522, -6.803e-6
-0.523, -6.802e-6
-0.524, -6.814e-6
-0.525, -6.819e-6
-0.526, -6.826e-6
-0.527, -6.832e-6
-0.528, -6.836e-6
-0.529, -6.848e-6
-0.530, -6.855e-6
-0.531, -6.855e-6
-0.532, -6.865e-6
-0.533, -6.869e-6
-0.534, -6.875e-6
-0.535, -6.880e-6
-0.536, -6.890e-6
-0.537, -6.899e-6
-0.538, -6.901e-6
-0.539, -6.908e-6
-0.540, -6.910e-6
-0.541, -6.918e-6
-0.542, -6.922e-6
-0.543, -6.926e-6
-0.544, -6.936e-6
-0.545, -6.937e-6
-0.546, -6.940e-6
-0.547, -6.946e-6
-0.548, -6.956e-6
-0.549, -6.960e-6
-0.550, -6.954e-6
-0.551, -6.967e-6
-0.552, -6.969e-6
-0.553, -6.974e-6
-0.554, -6.983e-6
-0.555, -6.985e-6
-0.556, -6.991e-6
-0.557, -6.997e-6
-0.558, -7.001e-6
-0.559, -7.004e-6
-0.560, -7.009e-6
-0.561, -7.016e-6
-0.562, -7.024e-6
-0.563, -7.020e-6
-0.564, -7.031e-6
-0.565, -7.033e-6
-0.566, -7.036e-6
-0.567, -7.046e-6
-0.568, -7.050e-6
-0.569, -7.056e-6
-0.570, -7.055e-6
-0.571, -7.065e-6
-0.572, -7.070e-6
-0.573, -7.073e-6
-0.574, -7.077e-6
-0.575, -7.080e-6
-0.576, -7.078e-6
-0.577, -7.093e-6
-0.578, -7.090e-6
-0.579, -7.102e-6
-0.580, -7.105e-6
-0.581, -7.114e-6
-0.582, -7.117e-6
-0.583, -7.116e-6
-0.584, -7.127e-6
-0.585, -7.128e-6
-0.586, -7.137e-6
-0.587, -7.143e-6
-0.588, -7.149e-6
-0.589, -7.156e-6
-0.590, -7.155e-6
-0.591, -7.164e-6
-0.592, -7.168e-6
-0.593, -7.169e-6
-0.594, -7.178e-6
-0.595, -7.182e-6
-0.596, -7.188e-6
-0.597, -7.192e-6
-0.598, -7.192e-6
-0.599, -7.203e-6
-0.600, -7.210e-6
-0.601, -7.206e-6
-0.602, -7.211e-6
-0.603, -7.215e-6
-0.604, -7.231e-6
-0.605, -7.234e-6
-0.606, -7.235e-6
-0.607, -7.243e-6
-0.608, -7.246e-6
-0.609, -7.257e-6
-0.610, -7.262e-6
-0.611, -7.263e-6
-0.612, -7.274e-6
-0.613, -7.277e-6
-0.614, -7.270e-6
-0.615, -7.286e-6
-0.616, -7.294e-6
-0.617, -7.299e-6
-0.618, -7.305e-6
-0.619, -7.315e-6
-0.620, -7.318e-6
-0.621, -7.325e-6
-0.622, -7.326e-6
-0.623, -7.336e-6
-0.624, -7.346e-6
-0.625, -7.352e-6
-0.626, -7.356e-6
-0.627, -7.354e-6
-0.628, -7.372e-6
-0.629, -7.376e-6
-0.630, -7.380e-6
-0.631, -7.391e-6
-0.632, -7.401e-6
-0.633, -7.403e-6
-0.634, -7.416e-6
-0.635, -7.417e-6
-0.636, -7.431e-6
-0.637, -7.437e-6
-0.638, -7.439e-6
-0.639, -7.451e-6
-0.640, -7.470e-6
-0.641, -7.470e-6
-0.642, -7.476e-6
-0.643, -7.478e-6
-0.644, -7.496e-6
-0.645, -7.499e-6
-0.646, -7.510e-6
-0.647, -7.518e-6
-0.648, -7.523e-6
-0.649, -7.536e-6
-0.650, -7.542e-6
-0.651, -7.553e-6
-0.652, -7.558e-6
-0.653, -7.562e-6
-0.654, -7.578e-6
-0.655, -7.589e-6
-0.656, -7.599e-6
-0.657, -7.603e-6
-0.658, -7.611e-6
-0.659, -7.628e-6
-0.660, -7.637e-6
-0.661, -7.650e-6
-0.662, -7.651e-6
-0.663, -7.663e-6
-0.664, -7.677e-6
-0.665, -7.684e-6
-0.666, -7.694e-6
-0.667, -7.698e-6
-0.668, -7.713e-6
-0.669, -7.728e-6
-0.670, -7.734e-6
-0.671, -7.746e-6
-0.672, -7.754e-6
-0.673, -7.764e-6
-0.674, -7.775e-6
-0.675, -7.783e-6
-0.676, -7.801e-6
-0.677, -7.807e-6
-0.678, -7.806e-6
-0.679, -7.833e-6
-0.680, -7.843e-6
-0.681, -7.858e-6
-0.682, -7.860e-6
-0.683, -7.868e-6
-0.684, -7.892e-6
-0.685, -7.898e-6
-0.686, -7.906e-6
-0.687, -7.914e-6
-0.688, -7.926e-6
-0.689, -7.943e-6
-0.690, -7.949e-6
-0.691, -7.970e-6
-0.692, -7.975e-6
-0.693, -7.984e-6
-0.694, -7.999e-6
-0.695, -8.008e-6
-0.696, -8.023e-6
-0.697, -8.026e-6
-0.698, -8.039e-6
-0.699, -8.052e-6
-0.700, -8.059e-6
-0.701, -8.076e-6
-0.702, -8.079e-6
-0.703, -8.094e-6
-0.704, -8.098e-6
-0.705, -8.113e-6
-0.706, -8.120e-6
-0.707, -8.128e-6
-0.708, -8.147e-6
-0.709, -8.157e-6
-0.710, -8.159e-6
-0.711, -8.177e-6
-0.712, -8.187e-6
-0.713, -8.196e-6
-0.714, -8.209e-6
-0.715, -8.211e-6
-0.716, -8.233e-6
-0.717, -8.240e-6
-0.718, -8.248e-6
-0.719, -8.259e-6
-0.720, -8.263e-6
-0.721, -8.280e-6
-0.722, -8.283e-6
-0.723, -8.290e-6
-0.724, -8.311e-6
-0.725, -8.318e-6
-0.726, -8.328e-6
-0.727, -8.341e-6
-0.728, -8.354e-6
-0.729, -8.362e-6
-0.730, -8.373e-6
-0.731, -8.389e-6
-0.732, -8.395e-6
-0.733, -8.403e-6
-0.734, -8.415e-6
-0.735, -8.424e-6
-0.736, -8.436e-6
-0.737, -8.446e-6
-0.738, -8.458e-6
-0.739, -8.468e-6
-0.740, -8.485e-6
-0.741, -8.497e-6
-0.742, -8.512e-6
-0.743, -8.526e-6
-0.744, -8.542e-6
-0.745, -8.549e-6
-0.746, -8.567e-6
-0.747, -8.575e-6
-0.748, -8.593e-6
-0.749, -8.607e-6
-0.750, -8.617e-6
-0.751, -8.637e-6
-0.752, -8.645e-6
-0.753, -8.665e-6
-0.754, -8.677e-6
-0.755, -8.682e-6
-0.756, -8.711e-6
-0.757, -8.725e-6
-0.758, -8.739e-6
-0.759, -8.767e-6
-0.760, -8.784e-6
-0.761, -8.799e-6
-0.762, -8.818e-6
-0.763, -8.835e-6
-0.764, -8.865e-6
-0.765, -8.879e-6
-0.766, -8.895e-6
-0.767, -8.919e-6
-0.768, -8.936e-6
-0.769, -8.970e-6
-0.770, -8.989e-6
-0.771, -9.011e-6
-0.772, -9.038e-6
-0.773, -9.068e-6
-0.774, -9.094e-6
-0.775, -9.116e-6
-0.776, -9.146e-6
-0.777, -9.172e-6
-0.778, -9.196e-6
-0.779, -9.234e-6
-0.780, -9.255e-6
-0.781, -9.279e-6
-0.782, -9.314e-6
-0.783, -9.353e-6
-0.784, -9.386e-6
-0.785, -9.420e-6
-0.786, -9.457e-6
-0.787, -9.488e-6
-0.788, -9.539e-6
-0.789, -9.577e-6
-0.790, -9.608e-6
-0.791, -9.658e-6
-0.792, -9.699e-6
-0.793, -9.756e-6
-0.794, -9.802e-6
-0.795, -9.837e-6
-0.796, -9.891e-6
-0.797, -9.937e-6
-0.798, -9.990e-6
-0.799, -1.005e-5
-0.800, -1.010e-5
-0.801, -1.017e-5
-0.802, -1.023e-5
-0.803, -1.029e-5
-0.804, -1.036e-5
-0.805, -1.042e-5
-0.806, -1.048e-5
-0.807, -1.056e-5
-0.808, -1.063e-5
-0.809, -1.071e-5
-0.810, -1.079e-5
-0.811, -1.087e-5
-0.812, -1.096e-5
-0.813, -1.105e-5
-0.814, -1.115e-5
-0.815, -1.124e-5
-0.816, -1.134e-5
-0.817, -1.144e-5
-0.818, -1.154e-5
-0.819, -1.161e-5
-0.820, -1.175e-5
-0.821, -1.188e-5
-0.822, -1.199e-5
-0.823, -1.212e-5
-0.824, -1.227e-5
-0.825, -1.238e-5
-0.826, -1.253e-5
-0.827, -1.265e-5
-0.828, -1.282e-5
-0.829, -1.298e-5
-0.830, -1.312e-5
-0.831, -1.330e-5
-0.832, -1.343e-5
-0.833, -1.362e-5
-0.834, -1.381e-5
-0.835, -1.397e-5
-0.836, -1.419e-5
-0.837, -1.439e-5
-0.838, -1.458e-5
-0.839, -1.482e-5
-0.840, -1.501e-5
-0.841, -1.525e-5
-0.842, -1.548e-5
-0.843, -1.573e-5
-0.844, -1.599e-5
-0.845, -1.628e-5
-0.846, -1.653e-5
-0.847, -1.678e-5
-0.848, -1.706e-5
-0.849, -1.736e-5
-0.850, -1.764e-5
-0.851, -1.794e-5
-0.852, -1.826e-5
-0.853, -1.859e-5
-0.854, -1.889e-5
-0.855, -1.922e-5
-0.856, -1.959e-5
-0.857, -1.989e-5
-0.858, -2.023e-5
-0.859, -2.063e-5
-0.860, -2.101e-5
-0.861, -2.141e-5
-0.862, -2.179e-5
-0.863, -2.223e-5
-0.864, -2.264e-5
-0.865, -2.307e-5
-0.866, -2.353e-5
-0.867, -2.395e-5
-0.868, -2.444e-5
-0.869, -2.492e-5
-0.870, -2.534e-5
-0.871, -2.588e-5
-0.872, -2.636e-5
-0.873, -2.690e-5
-0.874, -2.742e-5
-0.875, -2.793e-5
-0.876, -2.851e-5
-0.877, -2.905e-5
-0.878, -2.963e-5
-0.879, -3.022e-5
-0.880, -3.079e-5
-0.881, -3.144e-5
-0.882, -3.199e-5
-0.883, -3.255e-5
-0.884, -3.323e-5
-0.885, -3.386e-5
-0.886, -3.452e-5
-0.887, -3.518e-5
-0.888, -3.586e-5
-0.889, -3.657e-5
-0.890, -3.721e-5
-0.891, -3.797e-5
-0.892, -3.872e-5
-0.893, -3.950e-5
-0.894, -4.017e-5
-0.895, -4.091e-5
-0.896, -4.186e-5
-0.897, -4.258e-5
-0.898, -4.337e-5
-0.899, -4.414e-5
-0.900, -4.494e-5
-0.901, -4.582e-5
-0.902, -4.655e-5
-0.903, -4.740e-5
-0.904, -4.820e-5
-0.905, -4.904e-5
-0.906, -4.988e-5
-0.907, -5.067e-5
-0.908, -5.155e-5
-0.909, -5.223e-5
-0.910, -5.306e-5
-0.911, -5.394e-5
-0.912, -5.471e-5
-0.913, -5.556e-5
-0.914, -5.631e-5
-0.915, -5.708e-5
-0.916, -5.796e-5
-0.917, -5.871e-5
-0.918, -5.953e-5
-0.919, -6.031e-5
-0.920, -6.101e-5
-0.921, -6.189e-5
-0.922, -6.267e-5
-0.923, -6.339e-5
-0.924, -6.412e-5
-0.925, -6.482e-5
-0.926, -6.561e-5
-0.927, -6.628e-5
-0.928, -6.700e-5
-0.929, -6.770e-5
-0.930, -6.837e-5
-0.931, -6.911e-5
-0.932, -6.979e-5
-0.933, -7.050e-5
-0.934, -7.104e-5
-0.935, -7.172e-5
-0.936, -7.240e-5
-0.937, -7.311e-5
-0.938, -7.379e-5
-0.939, -7.441e-5
-0.940, -7.508e-5
-0.941, -7.577e-5
-0.942, -7.635e-5
-0.943, -7.704e-5
-0.944, -7.766e-5
-0.945, -7.831e-5
-0.946, -7.898e-5
-0.947, -7.971e-5
-0.948, -8.035e-5
-0.949, -8.091e-5
-0.950, -8.152e-5
-0.951, -8.218e-5
-0.952, -8.278e-5
-0.953, -8.345e-5
-0.954, -8.402e-5
-0.955, -8.462e-5
-0.956, -8.528e-5
-0.957, -8.587e-5
-0.958, -8.651e-5
-0.959, -8.711e-5
-0.960, -8.758e-5
-0.961, -8.829e-5
-0.962, -8.887e-5
-0.963, -8.947e-5
-0.964, -9.008e-5
-0.965, -9.062e-5
-0.966, -9.126e-5
-0.967, -9.183e-5
-0.968, -9.243e-5
-0.969, -9.300e-5
-0.970, -9.355e-5
-0.971, -9.414e-5
-0.972, -9.467e-5
-0.973, -9.524e-5
-0.974, -9.575e-5
-0.975, -9.629e-5
-0.976, -9.686e-5
-0.977, -9.736e-5
-0.978, -9.789e-5
-0.979, -9.836e-5
-0.980, -9.889e-5
-0.981, -9.941e-5
-0.982, -9.985e-5
-0.983, -1.004e-4
-0.984, -1.008e-4
-0.985, -1.012e-4
-0.986, -1.016e-4
-0.987, -1.021e-4
-0.988, -1.025e-4
-0.989, -1.029e-4
-0.990, -1.033e-4
-0.991, -1.038e-4
-0.992, -1.041e-4
-0.993, -1.045e-4
-0.994, -1.049e-4
-0.995, -1.052e-4
-0.996, -1.056e-4
-0.997, -1.059e-4
-0.998, -1.063e-4
-0.999, -1.066e-4
-1.000, -1.069e-4
-1.001, -1.072e-4
-1.002, -1.075e-4
-1.003, -1.077e-4
-1.004, -1.080e-4
-1.005, -1.082e-4
-1.006, -1.085e-4
-1.007, -1.087e-4
-1.008, -1.090e-4
-1.009, -1.092e-4
-1.010, -1.094e-4
-1.011, -1.095e-4
-1.012, -1.097e-4
-1.013, -1.099e-4
-1.014, -1.101e-4
-1.015, -1.102e-4
-1.016, -1.104e-4
-1.017, -1.105e-4
-1.018, -1.107e-4
-1.019, -1.108e-4
-1.020, -1.109e-4
-1.021, -1.111e-4
-1.022, -1.111e-4
-1.023, -1.112e-4
-1.024, -1.112e-4
-1.025, -1.113e-4
-1.026, -1.114e-4
-1.027, -1.115e-4
-1.028, -1.116e-4
-1.029, -1.117e-4
-1.030, -1.117e-4
-1.031, -1.118e-4
-1.032, -1.118e-4
-1.033, -1.119e-4
-1.034, -1.119e-4
-1.035, -1.120e-4
-1.036, -1.120e-4
-1.037, -1.120e-4
-1.038, -1.120e-4
-1.039, -1.120e-4
-1.040, -1.120e-4
-1.041, -1.121e-4
-1.042, -1.121e-4
-1.043, -1.120e-4
-1.044, -1.121e-4
-1.045, -1.121e-4
-1.046, -1.121e-4
-1.047, -1.120e-4
-1.048, -1.120e-4
-1.049, -1.120e-4
-1.050, -1.120e-4
-1.051, -1.120e-4
-1.052, -1.120e-4
-1.053, -1.119e-4
-1.054, -1.119e-4
-1.055, -1.119e-4
-1.056, -1.118e-4
-1.057, -1.118e-4
-1.058, -1.118e-4
-1.059, -1.117e-4
-1.060, -1.117e-4
-1.061, -1.117e-4
-1.062, -1.116e-4
-1.063, -1.116e-4
-1.064, -1.115e-4
-1.065, -1.115e-4
-1.066, -1.114e-4
-1.067, -1.114e-4
-1.068, -1.113e-4
-1.069, -1.113e-4
-1.070, -1.112e-4
-1.071, -1.112e-4
-1.072, -1.112e-4
-1.073, -1.111e-4
-1.074, -1.111e-4
-1.075, -1.110e-4
-1.076, -1.110e-4
-1.077, -1.109e-4
-1.078, -1.109e-4
-1.079, -1.108e-4
-1.080, -1.107e-4
-1.081, -1.107e-4
-1.082, -1.106e-4
-1.083, -1.106e-4
-1.084, -1.105e-4
-1.085, -1.105e-4
-1.086, -1.104e-4
-1.087, -1.104e-4
-1.088, -1.103e-4
-1.089, -1.103e-4
-1.090, -1.102e-4
-1.091, -1.102e-4
-1.092, -1.101e-4
-1.093, -1.101e-4
-1.094, -1.100e-4
-1.095, -1.100e-4
-1.096, -1.099e-4
-1.097, -1.098e-4
-1.098, -1.098e-4
-1.099, -1.097e-4
-1.100, -1.097e-4
-1.101, -1.097e-4
-1.102, -1.096e-4
-1.103, -1.095e-4
-1.104, -1.095e-4
-1.105, -1.094e-4
-1.106, -1.094e-4
-1.107, -1.093e-4
-1.108, -1.093e-4
-1.109, -1.092e-4
-1.110, -1.092e-4
-1.111, -1.092e-4
-1.112, -1.091e-4
-1.113, -1.090e-4
-1.114, -1.090e-4
-1.115, -1.089e-4
-1.116, -1.089e-4
-1.117, -1.088e-4
-1.118, -1.088e-4
-1.119, -1.088e-4
-1.120, -1.087e-4
-1.121, -1.087e-4
-1.122, -1.086e-4
-1.123, -1.086e-4
-1.124, -1.085e-4
-1.125, -1.085e-4
-1.126, -1.085e-4
-1.127, -1.084e-4
-1.128, -1.084e-4
-1.129, -1.083e-4
-1.130, -1.083e-4
-1.131, -1.082e-4
-1.132, -1.082e-4
-1.133, -1.081e-4
-1.134, -1.081e-4
-1.135, -1.081e-4
-1.136, -1.080e-4
-1.137, -1.080e-4
-1.138, -1.079e-4
-1.139, -1.079e-4
-1.140, -1.079e-4
-1.141, -1.078e-4
-1.142, -1.078e-4
-1.143, -1.077e-4
-1.144, -1.077e-4
-1.145, -1.077e-4
-1.146, -1.076e-4
-1.147, -1.076e-4
-1.148, -1.076e-4
-1.149, -1.075e-4
-1.150, -1.075e-4
-1.151, -1.074e-4
-1.152, -1.074e-4
-1.153, -1.074e-4
-1.154, -1.074e-4
-1.155, -1.073e-4
-1.156, -1.073e-4
-1.157, -1.073e-4
-1.158, -1.072e-4
-1.159, -1.072e-4
-1.160, -1.072e-4
-1.161, -1.071e-4
-1.162, -1.071e-4
-1.163, -1.071e-4
-1.164, -1.070e-4
-1.165, -1.070e-4
-1.166, -1.070e-4
-1.167, -1.070e-4
-1.168, -1.069e-4
-1.169, -1.069e-4
-1.170, -1.069e-4
-1.171, -1.068e-4
-1.172, -1.068e-4
-1.173, -1.068e-4
-1.174, -1.068e-4
-1.175, -1.067e-4
-1.176, -1.067e-4
-1.177, -1.067e-4
-1.178, -1.067e-4
-1.179, -1.067e-4
-1.180, -1.066e-4
-1.181, -1.066e-4
-1.182, -1.066e-4
-1.183, -1.066e-4
-1.184, -1.066e-4
-1.185, -1.065e-4
-1.186, -1.065e-4
-1.187, -1.065e-4
-1.188, -1.065e-4
-1.189, -1.065e-4
-1.190, -1.065e-4
-1.191, -1.065e-4
-1.192, -1.064e-4
-1.193, -1.064e-4
-1.194, -1.064e-4
-1.195, -1.064e-4
-1.196, -1.064e-4
-1.197, -1.064e-4
-1.198, -1.064e-4
-1.199, -1.064e-4
-1.200, -1.059e-4
-1.199, -1.055e-4
-1.198, -1.053e-4
-1.197, -1.051e-4
-1.196, -1.049e-4
-1.195, -1.047e-4
-1.194, -1.045e-4
-1.193, -1.044e-4
-1.192, -1.042e-4
-1.191, -1.041e-4
-1.190, -1.039e-4
-1.189, -1.038e-4
-1.188, -1.036e-4
-1.187, -1.035e-4
-1.186, -1.034e-4
-1.185, -1.033e-4
-1.184, -1.031e-4
-1.183, -1.030e-4
-1.182, -1.029e-4
-1.181, -1.027e-4
-1.180, -1.026e-4
-1.179, -1.025e-4
-1.178, -1.024e-4
-1.177, -1.023e-4
-1.176, -1.022e-4
-1.175, -1.021e-4
-1.174, -1.020e-4
-1.173, -1.018e-4
-1.172, -1.017e-4
-1.171, -1.016e-4
-1.170, -1.015e-4
-1.169, -1.014e-4
-1.168, -1.013e-4
-1.167, -1.012e-4
-1.166, -1.011e-4
-1.165, -1.010e-4
-1.164, -1.009e-4
-1.163, -1.008e-4
-1.162, -1.007e-4
-1.161, -1.006e-4
-1.160, -1.006e-4
-1.159, -1.005e-4
-1.158, -1.004e-4
-1.157, -1.003e-4
-1.156, -1.002e-4
-1.155, -1.001e-4
-1.154, -1.000e-4
-1.153, -9.994e-5
-1.152, -9.984e-5
-1.151, -9.975e-5
-1.150, -9.967e-5
-1.149, -9.958e-5
-1.148, -9.949e-5
-1.147, -9.941e-5
-1.146, -9.933e-5
-1.145, -9.925e-5
-1.144, -9.917e-5
-1.143, -9.909e-5
-1.142, -9.901e-5
-1.141, -9.893e-5
-1.140, -9.885e-5
-1.139, -9.878e-5
-1.138, -9.869e-5
-1.137, -9.861e-5
-1.136, -9.852e-5
-1.135, -9.844e-5
-1.134, -9.836e-5
-1.133, -9.828e-5
-1.132, -9.819e-5
-1.131, -9.811e-5
-1.130, -9.803e-5
-1.129, -9.796e-5
-1.128, -9.788e-5
-1.127, -9.779e-5
-1.126, -9.771e-5
-1.125, -9.764e-5
-1.124, -9.757e-5
-1.123, -9.749e-5
-1.122, -9.741e-5
-1.121, -9.733e-5
-1.120, -9.725e-5
-1.119, -9.717e-5
-1.118, -9.708e-5
-1.117, -9.700e-5
-1.116, -9.691e-5
-1.115, -9.683e-5
-1.114, -9.677e-5
-1.113, -9.667e-5
-1.112, -9.659e-5
-1.111, -9.650e-5
-1.110, -9.642e-5
-1.109, -9.635e-5
-1.108, -9.625e-5
-1.107, -9.617e-5
-1.106, -9.608e-5
-1.105, -9.599e-5
-1.104, -9.591e-5
-1.103, -9.581e-5
-1.102, -9.572e-5
-1.101, -9.562e-5
-1.100, -9.553e-5
-1.099, -9.545e-5
-1.098, -9.535e-5
-1.097, -9.526e-5
-1.096, -9.516e-5
-1.095, -9.506e-5
-1.094, -9.496e-5
-1.093, -9.487e-5
-1.092, -9.476e-5
-1.091, -9.466e-5
-1.090, -9.456e-5
-1.089, -9.446e-5
-1.088, -9.436e-5
-1.087, -9.424e-5
-1.086, -9.413e-5
-1.085, -9.402e-5
-1.084, -9.390e-5
-1.083, -9.377e-5
-1.082, -9.366e-5
-1.081, -9.354e-5
-1.080, -9.341e-5
-1.079, -9.328e-5
-1.078, -9.315e-5
-1.077, -9.303e-5
-1.076, -9.289e-5
-1.075, -9.276e-5
-1.074, -9.263e-5
-1.073, -9.247e-5
-1.072, -9.233e-5
-1.071, -9.218e-5
-1.070, -9.203e-5
-1.069, -9.188e-5
-1.068, -9.170e-5
-1.067, -9.156e-5
-1.066, -9.139e-5
-1.065, -9.120e-5
-1.064, -9.105e-5
-1.063, -9.087e-5
-1.062, -9.068e-5
-1.061, -9.050e-5
-1.060, -9.030e-5
-1.059, -9.010e-5
-1.058, -8.989e-5
-1.057, -8.969e-5
-1.056, -8.947e-5
-1.055, -8.925e-5
-1.054, -8.903e-5
-1.053, -8.880e-5
-1.052, -8.855e-5
-1.051, -8.830e-5
-1.050, -8.804e-5
-1.049, -8.779e-5
-1.048, -8.753e-5
-1.047, -8.725e-5
-1.046, -8.699e-5
-1.045, -8.673e-5
-1.044, -8.642e-5
-1.043, -8.610e-5
-1.042, -8.583e-5
-1.041, -8.548e-5
-1.040, -8.517e-5
-1.039, -8.483e-5
-1.038, -8.447e-5
-1.037, -8.419e-5
-1.036, -8.381e-5
-1.035, -8.344e-5
-1.034, -8.307e-5
-1.033, -8.266e-5
-1.032, -8.228e-5
-1.031, -8.188e-5
-1.030, -8.148e-5
-1.029, -8.107e-5
-1.028, -8.059e-5
-1.027, -8.018e-5
-1.026, -7.970e-5
-1.025, -7.926e-5
-1.024, -7.892e-5
-1.023, -7.831e-5
-1.022, -7.781e-5
-1.021, -7.733e-5
-1.020, -7.677e-5
-1.019, -7.625e-5
-1.018, -7.572e-5
-1.017, -7.516e-5
-1.016, -7.460e-5
-1.015, -7.399e-5
-1.014, -7.340e-5
-1.013, -7.280e-5
-1.012, -7.219e-5
-1.011, -7.165e-5
-1.010, -7.099e-5
-1.009, -7.034e-5
-1.008, -6.966e-5
-1.007, -6.899e-5
-1.006, -6.825e-5
-1.005, -6.762e-5
-1.004, -6.688e-5
-1.003, -6.618e-5
-1.002, -6.552e-5
-1.001, -6.474e-5
-1.000, -6.402e-5
-0.999, -6.318e-5
-0.998, -6.236e-5
-0.997, -6.169e-5
-0.996, -6.085e-5
-0.995, -6.011e-5
-0.994, -5.929e-5
-0.993, -5.848e-5
-0.992, -5.770e-5
-0.991, -5.682e-5
-0.990, -5.602e-5
-0.989, -5.521e-5
-0.988, -5.429e-5
-0.987, -5.348e-5
-0.986, -5.269e-5
-0.985, -5.189e-5
-0.984, -5.101e-5
-0.983, -5.009e-5
-0.982, -4.922e-5
-0.981, -4.837e-5
-0.980, -4.751e-5
-0.979, -4.664e-5
-0.978, -4.569e-5
-0.977, -4.486e-5
-0.976, -4.397e-5
-0.975, -4.306e-5
-0.974, -4.219e-5
-0.973, -4.134e-5
-0.972, -4.046e-5
-0.971, -3.954e-5
-0.970, -3.868e-5
-0.969, -3.780e-5
-0.968, -3.693e-5
-0.967, -3.606e-5
-0.966, -3.518e-5
-0.965, -3.437e-5
-0.964, -3.340e-5
-0.963, -3.255e-5
-0.962, -3.171e-5
-0.961, -3.083e-5
-0.960, -3.017e-5
-0.959, -2.921e-5
-0.958, -2.833e-5
-0.957, -2.755e-5
-0.956, -2.663e-5
-0.955, -2.585e-5
-0.954, -2.499e-5
-0.953, -2.415e-5
-0.952, -2.339e-5
-0.951, -2.255e-5
-0.950, -2.175e-5
-0.949, -2.093e-5
-0.948, -2.011e-5
-0.947, -1.921e-5
-0.946, -1.845e-5
-0.945, -1.771e-5
-0.944, -1.695e-5
-0.943, -1.613e-5
-0.942, -1.544e-5
-0.941, -1.466e-5
-0.940, -1.392e-5
-0.939, -1.316e-5
-0.938, -1.239e-5
-0.937, -1.170e-5
-0.936, -1.095e-5
-0.935, -1.026e-5
-0.934, -9.635e-6
-0.933, -8.858e-6
-0.932, -8.187e-6
-0.931, -7.427e-6
-0.930, -6.747e-6
-0.929, -6.057e-6
-0.928, -5.382e-6
-0.927, -4.710e-6
-0.926, -4.022e-6
-0.925, -3.422e-6
-0.924, -2.713e-6
-0.923, -2.112e-6
-0.922, -1.458e-6
-0.921, -7.890e-7
-0.920, -2.477e-7
-0.919, 4.103e-7
-0.918, 9.778e-7
-0.917, 1.459e-6
-0.916, 2.080e-6
-0.915, 2.591e-6
-0.914, 3.159e-6
-0.913, 3.690e-6
-0.912, 4.118e-6
-0.911, 4.675e-6
-0.910, 5.101e-6
-0.909, 5.482e-6
-0.908, 5.977e-6
-0.907, 6.374e-6
-0.906, 6.838e-6
-0.905, 7.251e-6
-0.904, 7.554e-6
-0.903, 8.025e-6
-0.902, 8.320e-6
-0.901, 8.651e-6
-0.900, 9.008e-6
-0.899, 9.297e-6
-0.898, 9.658e-6
-0.897, 9.854e-6
-0.896, 1.026e-5
-0.895, 1.049e-5
-0.894, 1.066e-5
-0.893, 1.088e-5
-0.892, 1.107e-5
-0.891, 1.128e-5
-0.890, 1.141e-5
-0.889, 1.155e-5
-0.888, 1.170e-5
-0.887, 1.185e-5
-0.886, 1.200e-5
-0.885, 1.202e-5
-0.884, 1.215e-5
-0.883, 1.214e-5
-0.882, 1.222e-5
-0.881, 1.226e-5
-0.880, 1.230e-5
-0.879, 1.238e-5
-0.878, 1.240e-5
-0.877, 1.233e-5
-0.876, 1.239e-5
-0.875, 1.236e-5
-0.874, 1.237e-5
-0.873, 1.232e-5
-0.872, 1.223e-5
-0.871, 1.223e-5
-0.870, 1.214e-5
-0.869, 1.208e-5
-0.868, 1.204e-5
-0.867, 1.194e-5
-0.866, 1.187e-5
-0.865, 1.176e-5
-0.864, 1.168e-5
-0.863, 1.159e-5
-0.862, 1.146e-5
-0.861, 1.135e-5
-0.860, 1.124e-5
-0.859, 1.113e-5
-0.858, 1.097e-5
-0.857, 1.085e-5
-0.856, 1.073e-5
-0.855, 1.060e-5
-0.854, 1.047e-5
-0.853, 1.034e-5
-0.852, 1.020e-5
-0.851, 1.006e-5
-0.850, 9.925e-6
-0.849, 9.785e-6
-0.848, 9.635e-6
-0.847, 9.491e-6
-0.846, 9.354e-6
-0.845, 9.227e-6
-0.844, 9.083e-6
-0.843, 8.937e-6
-0.842, 8.755e-6
-0.841, 8.625e-6
-0.840, 8.460e-6
-0.839, 8.322e-6
-0.838, 8.176e-6
-0.837, 8.012e-6
-0.836, 7.884e-6
-0.835, 7.733e-6
-0.834, 7.591e-6
-0.833, 7.444e-6
-0.832, 7.258e-6
-0.831, 7.151e-6
-0.830, 7.007e-6
-0.829, 6.852e-6
-0.828, 6.735e-6
-0.827, 6.595e-6
-0.826, 6.448e-6
-0.825, 6.317e-6
-0.824, 6.179e-6
-0.823, 6.066e-6
-0.822, 5.922e-6
-0.821, 5.791e-6
-0.820, 5.656e-6
-0.819, 5.489e-6
-0.818, 5.404e-6
-0.817, 5.276e-6
-0.816, 5.165e-6
-0.815, 5.041e-6
-0.814, 4.916e-6
-0.813, 4.805e-6
-0.812, 4.689e-6
-0.811, 4.575e-6
-0.810, 4.454e-6
-0.809, 4.348e-6
-0.808, 4.245e-6
-0.807, 4.121e-6
-0.806, 4.021e-6
-0.805, 3.905e-6
-0.804, 3.816e-6
-0.803, 3.720e-6
-0.802, 3.598e-6
-0.801, 3.504e-6
-0.800, 3.401e-6
-0.799, 3.315e-6
-0.798, 3.234e-6
-0.797, 3.114e-6
-0.796, 3.034e-6
-0.795, 2.942e-6
-0.794, 2.869e-6
-0.793, 2.781e-6
-0.792, 2.680e-6
-0.791, 2.599e-6
-0.790, 2.510e-6
-0.789, 2.435e-6
-0.788, 2.352e-6
-0.787, 2.268e-6
-0.786, 2.186e-6
-0.785, 2.108e-6
-0.784, 2.035e-6
-0.783, 1.968e-6
-0.782, 1.882e-6
-0.781, 1.807e-6
-0.780, 1.747e-6
-0.779, 1.679e-6
-0.778, 1.601e-6
-0.777, 1.534e-6
-0.776, 1.470e-6
-0.775, 1.406e-6
-0.774, 1.341e-6
-0.773, 1.277e-6
-0.772, 1.213e-6
-0.771, 1.154e-6
-0.770, 1.091e-6
-0.769, 1.036e-6
-0.768, 9.703e-7
-0.767, 9.092e-7
-0.766, 8.592e-7
-0.765, 7.996e-7
-0.764, 7.506e-7
-0.763, 6.970e-7
-0.762, 6.342e-7
-0.761, 5.836e-7
-0.760, 5.318e-7
-0.759, 4.873e-7
-0.758, 4.345e-7
-0.757, 3.808e-7
-0.756, 3.372e-7
-0.755, 2.841e-7
-0.754, 2.408e-7
-0.753, 2.005e-7
-0.752, 1.465e-7
-0.751, 1.120e-7
-0.750, 6.268e-8
-0.749, 1.396e-8
-0.748, -2.161e-8
-0.747, -6.352e-8
-0.746, -1.087e-7
-0.745, -1.542e-7
-0.744, -1.886e-7
-0.743, -2.160e-7
-0.742, -2.644e-7
-0.741, -3.070e-7
-0.740, -3.453e-7
-0.739, -3.786e-7
-0.738, -4.138e-7
-0.737, -4.511e-7
-0.736, -4.865e-7
-0.735, -5.250e-7
-0.734, -5.569e-7
-0.733, -5.903e-7
-0.732, -6.232e-7
-0.731, -6.532e-7
-0.730, -7.031e-7
-0.729, -7.215e-7
-0.728, -7.501e-7
-0.727, -7.864e-7
-0.726, -8.177e-7
-0.725, -8.527e-7
-0.724, -8.683e-7
-0.723, -9.001e-7
-0.722, -9.362e-7
-0.721, -9.625e-7
-0.720, -9.931e-7
-0.719, -1.012e-6
-0.718, -1.043e-6
-0.717, -1.070e-6
-0.716, -1.098e-6
-0.715, -1.126e-6
-0.714, -1.149e-6
-0.713, -1.177e-6
-0.712, -1.207e-6
-0.711, -1.226e-6
-0.710, -1.256e-6
-0.709, -1.277e-6
-0.708, -1.301e-6
-0.707, -1.328e-6
-0.706, -1.352e-6
-0.705, -1.373e-6
-0.704, -1.401e-6
-0.703, -1.418e-6
-0.702, -1.444e-6
-0.701, -1.463e-6
-0.700, -1.486e-6
-0.699, -1.503e-6
-0.698, -1.531e-6
-0.697, -1.561e-6
-0.696, -1.571e-6
-0.695, -1.596e-6
-0.694, -1.608e-6
-0.693, -1.641e-6
-0.692, -1.655e-6
-0.691, -1.659e-6
-0.690, -1.690e-6
-0.689, -1.701e-6
-0.688, -1.724e-6
-0.687, -1.742e-6
-0.686, -1.761e-6
-0.685, -1.784e-6
-0.684, -1.795e-6
-0.683, -1.812e-6
-0.682, -1.836e-6
-0.681, -1.844e-6
-0.680, -1.862e-6
-0.679, -1.886e-6
-0.678, -1.898e-6
-0.677, -1.915e-6
-0.676, -1.920e-6
-0.675, -1.942e-6
-0.674, -1.950e-6
-0.673, -1.963e-6
-0.672, -1.980e-6
-0.671, -1.984e-6
-0.670, -2.003e-6
-0.669, -2.015e-6
-0.668, -2.021e-6
-0.667, -2.040e-6
-0.666, -2.051e-6
-0.665, -2.064e-6
-0.664, -2.070e-6
-0.663, -2.078e-6
-0.662, -2.097e-6
-0.661, -2.106e-6
-0.660, -2.112e-6
-0.659, -2.115e-6
-0.658, -2.129e-6
-0.657, -2.143e-6
-0.656, -2.150e-6
-0.655, -2.158e-6
-0.654, -2.164e-6
-0.653, -2.180e-6
-0.652, -2.187e-6
-0.651, -2.190e-6
-0.650, -2.206e-6
-0.649, -2.206e-6
-0.648, -2.215e-6
-0.647, -2.226e-6
-0.646, -2.235e-6
-0.645, -2.240e-6
-0.644, -2.248e-6
-0.643, -2.251e-6
-0.642, -2.264e-6
-0.641, -2.269e-6
-0.640, -2.265e-6
-0.639, -2.274e-6
-0.638, -2.281e-6
-0.637, -2.294e-6
-0.636, -2.293e-6
-0.635, -2.302e-6
-0.634, -2.307e-6
-0.633, -2.313e-6
-0.632, -2.320e-6
-0.631, -2.321e-6
-0.630, -2.328e-6
-0.629, -2.331e-6
-0.628, -2.335e-6
-0.627, -2.352e-6
-0.626, -2.349e-6
-0.625, -2.350e-6
-0.624, -2.355e-6
-0.623, -2.359e-6
-0.622, -2.369e-6
-0.621, -2.370e-6
-0.620, -2.372e-6
-0.619, -2.377e-6
-0.618, -2.381e-6
-0.617, -2.391e-6
-0.616, -2.388e-6
-0.615, -2.408e-6
-0.614, -2.404e-6
-0.613, -2.406e-6
-0.612, -2.411e-6
-0.611, -2.405e-6
-0.610, -2.415e-6
-0.609, -2.415e-6
-0.608, -2.420e-6
-0.607, -2.420e-6
-0.606, -2.419e-6
-0.605, -2.429e-6
-0.604, -2.426e-6
-0.603, -2.432e-6
-0.602, -2.444e-6
-0.601, -2.440e-6
-0.600, -2.445e-6
-0.599, -2.446e-6
-0.598, -2.454e-6
-0.597, -2.456e-6
-0.596, -2.451e-6
-0.595, -2.459e-6
-0.594, -2.462e-6
-0.593, -2.462e-6
-0.592, -2.463e-6
-0.591, -2.460e-6
-0.590, -2.471e-6
-0.589, -2.465e-6
-0.588, -2.470e-6
-0.587, -2.476e-6
-0.586, -2.480e-6
-0.585, -2.486e-6
-0.584, -2.488e-6
-0.583, -2.486e-6
-0.582, -2.495e-6
-0.581, -2.495e-6
-0.580, -2.500e-6
-0.579, -2.493e-6
-0.578, -2.498e-6
-0.577, -2.502e-6
-0.576, -2.511e-6
-0.575, -2.509e-6
-0.574, -2.506e-6
-0.573, -2.514e-6
-0.572, -2.513e-6
-0.571, -2.511e-6
-0.570, -2.520e-6
-0.569, -2.519e-6
-0.568, -2.522e-6
-0.567, -2.527e-6
-0.566, -2.522e-6
-0.565, -2.532e-6
-0.564, -2.526e-6
-0.563, -2.530e-6
-0.562, -2.538e-6
-0.561, -2.529e-6
-0.560, -2.534e-6
-0.559, -2.531e-6
-0.558, -2.536e-6
-0.557, -2.543e-6
-0.556, -2.539e-6
-0.555, -2.541e-6
-0.554, -2.542e-6
-0.553, -2.546e-6
-0.552, -2.553e-6
-0.551, -2.548e-6
-0.550, -2.553e-6
-0.549, -2.552e-6
-0.548, -2.549e-6
-0.547, -2.551e-6
-0.546, -2.551e-6
-0.545, -2.552e-6
-0.544, -2.555e-6
-0.543, -2.552e-6
-0.542, -2.554e-6
-0.541, -2.556e-6
-0.540, -2.554e-6
-0.539, -2.557e-6
-0.538, -2.551e-6
-0.537, -2.561e-6
-0.536, -2.553e-6
-0.535, -2.558e-6
-0.534, -2.559e-6
-0.533, -2.562e-6
-0.532, -2.562e-6
-0.531, -2.553e-6
-0.530, -2.559e-6
-0.529, -2.559e-6
-0.528, -2.561e-6
-0.527, -2.557e-6
-0.526, -2.553e-6
-0.525, -2.568e-6
-0.524, -2.559e-6
-0.523, -2.560e-6
-0.522, -2.562e-6
-0.521, -2.559e-6
-0.520, -2.560e-6
-0.519, -2.559e-6
-0.518, -2.558e-6
-0.517, -2.561e-6
-0.516, -2.553e-6
-0.515, -2.558e-6
-0.514, -2.555e-6
-0.513, -2.553e-6
-0.512, -2.547e-6
-0.511, -2.546e-6
-0.510, -2.550e-6
-0.509, -2.551e-6
-0.508, -2.547e-6
-0.507, -2.546e-6
-0.506, -2.547e-6
-0.505, -2.546e-6
-0.504, -2.544e-6
-0.503, -2.543e-6
-0.502, -2.543e-6
-0.501, -2.542e-6
-0.500, -2.536e-6
-0.499, -2.540e-6
-0.498, -2.536e-6
-0.497, -2.535e-6
-0.496, -2.530e-6
-0.495, -2.526e-6
-0.494, -2.526e-6
-0.493, -2.533e-6
-0.492, -2.527e-6
-0.491, -2.523e-6
-0.490, -2.527e-6
-0.489, -2.522e-6
-0.488, -2.524e-6
-0.487, -2.513e-6
-0.486, -2.513e-6
-0.485, -2.513e-6
-0.484, -2.506e-6
-0.483, -2.508e-6
-0.482, -2.509e-6
-0.481, -2.501e-6
-0.480, -2.505e-6
-0.479, -2.497e-6
-0.478, -2.502e-6
-0.477, -2.501e-6
-0.476, -2.490e-6
-0.475, -2.491e-6
-0.474, -2.498e-6
-0.473, -2.495e-6
-0.472, -2.490e-6
-0.471, -2.482e-6
-0.470, -2.486e-6
-0.469, -2.479e-6
-0.468, -2.481e-6
-0.467, -2.479e-6
-0.466, -2.473e-6
-0.465, -2.472e-6
-0.464, -2.470e-6
-0.463, -2.473e-6
-0.462, -2.469e-6
-0.461, -2.466e-6
-0.460, -2.466e-6
-0.459, -2.461e-6
-0.458, -2.467e-6
-0.457, -2.460e-6
-0.456, -2.449e-6
-0.455, -2.457e-6
-0.454, -2.452e-6
-0.453, -2.458e-6
-0.452, -2.447e-6
-0.451, -2.441e-6
-0.450, -2.449e-6
-0.449, -2.448e-6
-0.448, -2.455e-6
-0.447, -2.443e-6
-0.446, -2.440e-6
-0.445, -2.444e-6
-0.444, -2.438e-6
-0.443, -2.441e-6
-0.442, -2.438e-6
-0.441, -2.427e-6
-0.440, -2.438e-6
-0.439, -2.426e-6
-0.438, -2.429e-6
-0.437, -2.428e-6
-0.436, -2.419e-6
-0.435, -2.413e-6
-0.434, -2.422e-6
-0.433, -2.420e-6
-0.432, -2.421e-6
-0.431, -2.414e-6
-0.430, -2.420e-6
-0.429, -2.417e-6
-0.428, -2.414e-6
-0.427, -2.412e-6
-0.426, -2.410e-6
-0.425, -2.410e-6
-0.424, -2.406e-6
-0.423, -2.411e-6
-0.422, -2.407e-6
-0.421, -2.406e-6
-0.420, -2.404e-6
-0.419, -2.403e-6
-0.418, -2.405e-6
-0.417, -2.409e-6
-0.416, -2.402e-6
-0.415, -2.402e-6
-0.414, -2.397e-6
-0.413, -2.400e-6
-0.412, -2.397e-6
-0.411, -2.392e-6
-0.410, -2.419e-6
-0.409, -2.396e-6
-0.408, -2.394e-6
-0.407, -2.390e-6
-0.406, -2.389e-6
-0.405, -2.391e-6
-0.404, -2.384e-6
-0.403, -2.389e-6
-0.402, -2.392e-6
-0.401, -2.380e-6
-0.400, -2.388e-6
-0.399, -2.383e-6
-0.398, -2.383e-6
-0.397, -2.392e-6
-0.396, -2.372e-6
-0.395, -2.378e-6
-0.394, -2.376e-6
-0.393, -2.379e-6
-0.392, -2.379e-6
-0.391, -2.368e-6
-0.390, -2.370e-6
-0.389, -2.376e-6
-0.388, -2.374e-6
-0.387, -2.370e-6
-0.386, -2.368e-6
-0.385, -2.371e-6
-0.384, -2.363e-6
-0.383, -2.364e-6
-0.382, -2.367e-6
-0.381, -2.360e-6
-0.380, -2.360e-6
-0.379, -2.360e-6
-0.378, -2.360e-6
-0.377, -2.353e-6
-0.376, -2.354e-6
-0.375, -2.357e-6
-0.374, -2.355e-6
-0.373, -2.358e-6
-0.372, -2.355e-6
-0.371, -2.357e-6
-0.370, -2.359e-6
-0.369, -2.352e-6
-0.368, -2.351e-6
-0.367, -2.352e-6
-0.366, -2.349e-6
-0.365, -2.353e-6
-0.364, -2.343e-6
-0.363, -2.347e-6
-0.362, -2.346e-6
-0.361, -2.343e-6
-0.360, -2.346e-6
-0.359, -2.343e-6
-0.358, -2.343e-6
-0.357, -2.344e-6
-0.356, -2.338e-6
-0.355, -2.343e-6
-0.354, -2.336e-6
-0.353, -2.335e-6
-0.352, -2.338e-6
-0.351, -2.332e-6
-0.350, -2.334e-6
-0.349, -2.334e-6
-0.348, -2.333e-6
-0.347, -2.327e-6
-0.346, -2.336e-6
-0.345, -2.333e-6
-0.344, -2.327e-6
-0.343, -2.331e-6
-0.342, -2.327e-6
-0.341, -2.327e-6
-0.340, -2.329e-6
-0.339, -2.323e-6
-0.338, -2.328e-6
-0.337, -2.322e-6
-0.336, -2.319e-6
-0.335, -2.321e-6
-0.334, -2.316e-6
-0.333, -2.312e-6
-0.332, -2.313e-6
-0.331, -2.309e-6
-0.330, -2.316e-6
-0.329, -2.309e-6
-0.328, -2.316e-6
-0.327, -2.311e-6
-0.326, -2.308e-6
-0.325, -2.310e-6
-0.324, -2.306e-6
-0.323, -2.307e-6
-0.322, -2.307e-6
-0.321, -2.299e-6
-0.320, -2.312e-6
-0.319, -2.303e-6
-0.318, -2.303e-6
-0.317, -2.301e-6
-0.316, -2.292e-6
-0.315, -2.297e-6
-0.314, -2.298e-6
-0.313, -2.298e-6
-0.312, -2.295e-6
-0.311, -2.287e-6
-0.310, -2.297e-6
-0.309, -2.293e-6
-0.308, -2.290e-6
-0.307, -2.281e-6
-0.306, -2.285e-6
-0.305, -2.285e-6
-0.304, -2.285e-6
-0.303, -2.279e-6
-0.302, -2.276e-6
-0.301, -2.280e-6
-0.300, -2.276e-6
-0.299, -2.275e-6
-0.298, -2.273e-6
-0.297, -2.272e-6
-0.296, -2.267e-6
-0.295, -2.278e-6
-0.294, -2.268e-6
-0.293, -2.267e-6
-0.292, -2.264e-6
-0.291, -2.262e-6
-0.290, -2.268e-6
-0.289, -2.261e-6
-0.288, -2.259e-6
-0.287, -2.255e-6
-0.286, -2.252e-6
-0.285, -2.254e-6
-0.284, -2.246e-6
-0.283, -2.246e-6
-0.282, -2.242e-6
-0.281, -2.238e-6
-0.280, -2.244e-6
-0.279, -2.239e-6
-0.278, -2.237e-6
-0.277, -2.238e-6
-0.276, -2.229e-6
-0.275, -2.233e-6
-0.274, -2.230e-6
-0.273, -2.229e-6
-0.272, -2.226e-6
-0.271, -2.219e-6
-0.270, -2.222e-6
-0.269, -2.226e-6
-0.268, -2.216e-6
-0.267, -2.213e-6
-0.266, -2.212e-6
-0.265, -2.209e-6
-0.264, -2.210e-6
-0.263, -2.206e-6
-0.262, -2.203e-6
-0.261, -2.202e-6
-0.260, -2.201e-6
-0.259, -2.197e-6
-0.258, -2.198e-6
-0.257, -2.193e-6
-0.256, -2.193e-6
-0.255, -2.188e-6
-0.254, -2.184e-6
-0.253, -2.190e-6
-0.252, -2.183e-6
-0.251, -2.177e-6
-0.250, -2.183e-6
-0.249, -2.180e-6
-0.248, -2.176e-6
-0.247, -2.171e-6
-0.246, -2.165e-6
-0.245, -2.168e-6
-0.244, -2.165e-6
-0.243, -2.170e-6
-0.242, -2.166e-6
-0.241, -2.155e-6
-0.240, -2.161e-6
-0.239, -2.155e-6
-0.238, -2.153e-6
-0.237, -2.150e-6
-0.236, -2.141e-6
-0.235, -2.147e-6
-0.234, -2.145e-6
-0.233, -2.145e-6
-0.232, -2.132e-6
-0.231, -2.124e-6
-0.230, -2.135e-6
-0.229, -2.133e-6
-0.228, -2.127e-6
-0.227, -2.124e-6
-0.226, -2.125e-6
-0.225, -2.125e-6
-0.224, -2.121e-6
-0.223, -2.116e-6
-0.222, -2.115e-6
-0.221, -2.114e-6
-0.220, -2.113e-6
-0.219, -2.105e-6
-0.218, -2.112e-6
-0.217, -2.106e-6
-0.216, -2.104e-6
-0.215, -2.104e-6
-0.214, -2.097e-6
-0.213, -2.098e-6
-0.212, -2.091e-6
-0.211, -2.093e-6
-0.210, -2.098e-6
-0.209, -2.085e-6
-0.208, -2.085e-6
-0.207, -2.080e-6
-0.206, -2.083e-6
-0.205, -2.100e-6
-0.204, -2.079e-6
-0.203, -2.076e-6
-0.202, -2.074e-6
-0.201, -2.072e-6
-0.200, -2.077e-6
-0.199, -2.065e-6
-0.198, -2.067e-6
-0.197, -2.061e-6
-0.196, -2.059e-6
-0.195, -2.057e-6
-0.194, -2.058e-6
-0.193, -2.056e-6
-0.192, -2.058e-6
-0.191, -2.049e-6
-0.190, -2.047e-6
-0.189, -2.047e-6
-0.188, -2.045e-6
-0.187, -2.042e-6
-0.186, -2.041e-6
-0.185, -2.042e-6
-0.184, -2.034e-6
-0.183, -2.034e-6
-0.182, -2.033e-6
-0.181, -2.028e-6
-0.180, -2.027e-6
-0.179, -2.017e-6
-0.178, -2.025e-6
-0.177, -2.018e-6
-0.176, -2.018e-6
-0.175, -2.019e-6
-0.174, -2.012e-6
-0.173, -2.019e-6
-0.172, -2.010e-6
-0.171, -2.004e-6
-0.170, -2.008e-6
-0.169, -2.001e-6
-0.168, -2.004e-6
-0.167, -2.004e-6
-0.166, -1.997e-6
-0.165, -2.001e-6
-0.164, -1.991e-6
-0.163, -1.994e-6
-0.162, -1.988e-6
-0.161, -1.985e-6
-0.160, -1.990e-6
-0.159, -1.982e-6
-0.158, -1.982e-6
-0.157, -1.977e-6
-0.156, -1.974e-6
-0.155, -1.976e-6
-0.154, -1.976e-6
-0.153, -1.971e-6
-0.152, -1.967e-6
-0.151, -1.964e-6
-0.150, -1.969e-6
-0.149, -1.969e-6
-0.148, -1.960e-6
-0.147, -1.955e-6
-0.146, -1.958e-6
-0.145, -1.961e-6
-0.144, -1.956e-6
-0.143, -1.950e-6
-0.142, -1.949e-6
-0.141, -1.954e-6
-0.140, -1.948e-6
-0.139, -1.942e-6
-0.138, -1.942e-6
-0.137, -1.940e-6
-0.136, -1.941e-6
-0.135, -1.941e-6
-0.134, -1.933e-6
-0.133, -1.936e-6
-0.132, -1.932e-6
-0.131, -1.932e-6
-0.130, -1.930e-6
-0.129, -1.923e-6
-0.128, -1.918e-6
-0.127, -1.921e-6
-0.126, -1.921e-6
-0.125, -1.923e-6
-0.124, -1.913e-6
-0.123, -1.914e-6
-0.122, -1.913e-6
-0.121, -1.910e-6
-0.120, -1.913e-6
-0.119, -1.904e-6
-0.118, -1.905e-6
-0.117, -1.907e-6
-0.116, -1.901e-6
-0.115, -1.905e-6
-0.114, -1.903e-6
-0.113, -1.899e-6
-0.112, -1.896e-6
-0.111, -1.892e-6
-0.110, -1.897e-6
-0.109, -1.888e-6
-0.108, -1.888e-6
-0.107, -1.884e-6
-0.106, -1.881e-6
-0.105, -1.885e-6
-0.104, -1.878e-6
-0.103, -1.871e-6
-0.102, -1.872e-6
-0.101, -1.874e-6
-0.100, -1.873e-6
-0.099, -1.868e-6
-0.098, -1.871e-6
-0.097, -1.866e-6
-0.096, -1.864e-6
-0.095, -1.863e-6
-0.094, -1.860e-6
-0.093, -1.863e-6
-0.092, -1.855e-6
-0.091, -1.849e-6
-0.090, -1.859e-6
-0.089, -1.853e-6
-0.088, -1.851e-6
-0.087, -1.844e-6
-0.086, -1.842e-6
-0.085, -1.848e-6
-0.084, -1.839e-6
-0.083, -1.839e-6
-0.082, -1.841e-6
-0.081, -1.834e-6
-0.080, -1.841e-6
-0.079, -1.827e-6
-0.078, -1.829e-6
-0.077, -1.819e-6
-0.076, -1.820e-6
-0.075, -1.824e-6
-0.074, -1.822e-6
-0.073, -1.817e-6
-0.072, -1.813e-6
-0.071, -1.815e-6
-0.070, -1.817e-6
-0.069, -1.811e-6
-0.068, -1.808e-6
-0.067, -1.806e-6
-0.066, -1.809e-6
-0.065, -1.807e-6
-0.064, -1.808e-6
-0.063, -1.801e-6
-0.062, -1.798e-6
-0.061, -1.801e-6
-0.060, -1.794e-6
-0.059, -1.788e-6
-0.058, -1.790e-6
-0.057, -1.789e-6
-0.056, -1.788e-6
-0.055, -1.783e-6
-0.054, -1.781e-6
-0.053, -1.778e-6
-0.052, -1.778e-6
-0.051, -1.776e-6
-0.050, -1.778e-6
-0.049, -1.768e-6
-0.048, -1.772e-6
-0.047, -1.762e-6
-0.046, -1.761e-6
-0.045, -1.766e-6
-0.044, -1.755e-6
-0.043, -1.754e-6
-0.042, -1.754e-6
-0.041, -1.748e-6
-0.040, -1.751e-6
-0.039, -1.749e-6
-0.038, -1.750e-6
-0.037, -1.741e-6
-0.036, -1.740e-6
-0.035, -1.738e-6
-0.034, -1.732e-6
-0.033, -1.732e-6
-0.032, -1.729e-6
-0.031, -1.725e-6
-0.030, -1.725e-6
-0.029, -1.721e-6
-0.028, -1.717e-6
-0.027, -1.712e-6
-0.026, -1.706e-6
-0.025, -1.709e-6
-0.024, -1.707e-6
-0.023, -1.707e-6
-0.022, -1.698e-6
-0.021, -1.704e-6
-0.020, -1.701e-6
-0.019, -1.695e-6
-0.018, -1.697e-6
-0.017, -1.690e-6
-0.016, -1.693e-6
-0.015, -1.685e-6
-0.014, -1.681e-6
-0.013, -1.687e-6
-0.012, -1.674e-6
-0.011, -1.679e-6
-0.010, -1.677e-6
-0.009, -1.670e-6
-0.008, -1.670e-6
-0.007, -1.662e-6
-0.006, -1.665e-6
-0.005, -1.663e-6
-0.004, -1.658e-6
-0.003, -1.654e-6
-0.002, -1.651e-6
-0.001, -1.652e-6
-0.000, -1.677e-6
0.001, -1.647e-6
0.002, -1.642e-6
0.003, -1.640e-6
0.004, -1.639e-6
0.005, -1.631e-6
0.006, -1.629e-6
0.007, -1.629e-6
0.008, -1.622e-6
0.009, -1.625e-6
0.010, -1.621e-6
0.011, -1.616e-6
0.012, -1.614e-6
0.013, -1.616e-6
0.014, -1.612e-6
0.015, -1.605e-6
0.016, -1.600e-6
0.017, -1.599e-6
0.018, -1.596e-6
0.019, -1.598e-6
0.020, -1.589e-6
0.021, -1.581e-6
0.022, -1.587e-6
0.023, -1.583e-6
0.024, -1.582e-6
0.025, -1.567e-6
0.026, -1.566e-6
0.027, -1.573e-6
0.028, -1.565e-6
0.029, -1.564e-6
0.030, -1.560e-6
0.031, -1.555e-6
0.032, -1.558e-6
0.033, -1.549e-6
0.034, -1.547e-6
0.035, -1.548e-6
0.036, -1.539e-6
0.037, -1.544e-6
0.038, -1.540e-6
0.039, -1.538e-6
0.040, -1.529e-6
0.041, -1.524e-6
0.042, -1.526e-6
0.043, -1.524e-6
0.044, -1.519e-6
0.045, -1.516e-6
0.046, -1.509e-6
0.047, -1.508e-6
0.048, -1.503e-6
0.049, -1.502e-6
0.050, -1.497e-6
0.051, -1.498e-6
0.052, -1.492e-6
0.053, -1.485e-6
0.054, -1.488e-6
0.055, -1.485e-6
0.056, -1.475e-6
0.057, -1.472e-6
0.058, -1.473e-6
0.059, -1.470e-6
0.060, -1.467e-6
0.061, -1.457e-6
0.062, -1.458e-6
0.063, -1.454e-6
0.064, -1.463e-6
0.065, -1.448e-6
0.066, -1.441e-6
0.067, -1.445e-6
0.068, -1.438e-6
0.069, -1.434e-6
0.070, -1.434e-6
0.071, -1.422e-6
0.072, -1.423e-6
0.073, -1.421e-6
0.074, -1.415e-6
0.075, -1.415e-6
0.076, -1.401e-6
0.077, -1.397e-6
0.078, -1.400e-6
0.079, -1.396e-6
0.080, -1.394e-6
0.081, -1.381e-6
0.082, -1.383e-6
0.083, -1.380e-6
0.084, -1.372e-6
0.085, -1.369e-6
0.086, -1.362e-6
0.087, -1.362e-6
0.088, -1.357e-6
0.089, -1.356e-6
0.090, -1.353e-6
0.091, -1.345e-6
0.092, -1.342e-6
0.093, -1.337e-6
0.094, -1.337e-6
0.095, -1.330e-6
0.096, -1.325e-6
0.097, -1.323e-6
0.098, -1.322e-6
0.099, -1.315e-6
0.100, -1.309e-6
0.101, -1.304e-6
0.102, -1.302e-6
0.103, -1.296e-6
0.104, -1.293e-6
0.105, -1.289e-6
0.106, -1.283e-6
0.107, -1.289e-6
0.108, -1.278e-6
0.109, -1.275e-6
0.110, -1.270e-6
0.111, -1.265e-6
0.112, -1.269e-6
0.113, -1.254e-6
0.114, -1.256e-6
0.115, -1.258e-6
0.116, -1.247e-6
0.117, -1.244e-6
0.118, -1.237e-6
0.119, -1.233e-6
0.120, -1.236e-6
0.121, -1.227e-6
0.122, -1.226e-6
0.123, -1.220e-6
0.124, -1.220e-6
0.125, -1.214e-6
0.126, -1.209e-6
0.127, -1.208e-6
0.128, -1.191e-6
0.129, -1.197e-6
0.130, -1.194e-6
0.131, -1.189e-6
0.132, -1.185e-6
0.133, -1.178e-6
0.134, -1.179e-6
0.135, -1.175e-6
0.136, -1.168e-6
0.137, -1.165e-6
0.138, -1.165e-6
0.139, -1.167e-6
0.140, -1.160e-6
0.141, -1.160e-6
0.142, -1.158e-6
0.143, -1.157e-6
0.144, -1.156e-6
0.145, -1.146e-6
0.146, -1.143e-6
0.147, -1.150e-6
0.148, -1.145e-6
0.149, -1.140e-6
0.150, -1.141e-6
0.151, -1.139e-6
0.152, -1.142e-6
0.153, -1.143e-6
0.154, -1.143e-6
0.155, -1.144e-6
0.156, -1.141e-6
0.157, -1.143e-6
0.158, -1.147e-6
0.159, -1.146e-6
0.160, -1.146e-6
0.161, -1.142e-6
0.162, -1.153e-6
0.163, -1.153e-6
0.164, -1.150e-6
0.165, -1.155e-6
0.166, -1.165e-6
0.167, -1.164e-6
0.168, -1.165e-6
0.169, -1.165e-6
0.170, -1.170e-6
0.171, -1.171e-6
0.172, -1.174e-6
0.173, -1.171e-6
0.174, -1.175e-6
0.175, -1.177e-6
0.176, -1.179e-6
0.177, -1.179e-6
0.178, -1.178e-6
0.179, -1.175e-6
0.180, -1.179e-6
0.181, -1.177e-6
0.182, -1.184e-6
0.183, -1.180e-6
0.184, -1.182e-6
0.185, -1.182e-6
0.186, -1.178e-6
0.187, -1.182e-6
0.188, -1.175e-6
0.189, -1.178e-6
0.190, -1.174e-6
0.191, -1.170e-6
0.192, -1.176e-6
0.193, -1.164e-6
0.194, -1.166e-6
0.195, -1.158e-6
0.196, -1.152e-6
0.197, -1.152e-6
0.198, -1.149e-6
0.199, -1.148e-6
0.200, -1.142e-6
0.201, -1.134e-6
0.202, -1.133e-6
0.203, -1.131e-6
0.204, -1.128e-6
0.205, -1.128e-6
0.206, -1.112e-6
0.207, -1.109e-6
0.208, -1.101e-6
0.209, -1.093e-6
0.210, -1.083e-6
0.211, -1.083e-6
0.212, -1.074e-6
0.213, -1.068e-6
0.214, -1.066e-6
0.215, -1.051e-6
0.216, -1.050e-6
0.217, -1.046e-6
0.218, -1.034e-6
0.219, -1.027e-6
0.220, -1.010e-6
0.221, -1.005e-6
0.222, -1.003e-6
0.223, -9.914e-7
0.224, -9.830e-7
0.225, -9.703e-7
0.226, -9.649e-7
0.227, -9.611e-7
0.228, -9.503e-7
0.229, -9.397e-7
0.230, -9.249e-7
0.231, -9.197e-7
0.232, -9.161e-7
0.233, -9.018e-7
0.234, -8.934e-7
0.235, -8.822e-7
0.236, -8.726e-7
0.237, -8.645e-7
0.238, -8.491e-7
0.239, -8.415e-7
0.240, -8.317e-7
0.241, -8.200e-7
0.242, -8.137e-7
0.243, -8.102e-7
0.244, -7.904e-7
0.245, -7.775e-7
0.246, -7.691e-7
0.247, -7.567e-7
0.248, -7.387e-7
0.249, -7.261e-7
0.250, -7.124e-7
0.251, -7.032e-7
0.252, -6.887e-7
0.253, -6.735e-7
0.254, -6.601e-7
0.255, -6.497e-7
0.256, -6.362e-7
0.257, -6.235e-7
0.258, -6.034e-7
0.259, -6.018e-7
0.260, -5.803e-7
0.261, -5.638e-7
0.262, -5.530e-7
0.263, -5.339e-7
0.264, -5.183e-7
0.265, -4.979e-7
0.266, -4.837e-7
0.267, -4.723e-7
0.268, -4.528e-7
0.269, -4.429e-7
0.270, -4.166e-7
0.271, -3.997e-7
0.272, -3.850e-7
0.273, -3.639e-7
0.274, -3.463e-7
0.275, -3.278e-7
0.276, -3.061e-7
0.277, -2.902e-7
0.278, -2.679e-7
0.279, -2.432e-7
0.280, -2.172e-7
0.281, -1.907e-7
0.282, -1.730e-7
0.283, -1.531e-7
0.284, -1.290e-7
0.285, -1.001e-7
0.286, -8.116e-8
0.287, -5.982e-8
0.288, -3.214e-8
0.289, -4.171e-9
0.290, 2.136e-8
0.291, 4.602e-8
0.292, 6.979e-8
0.293, 1.066e-7
0.294, 1.185e-7
0.295, 1.529e-7
0.296, 1.833e-7
0.297, 2.131e-7
0.298, 2.505e-7
0.299, 2.775e-7
0.300, 3.131e-7
0.301, 3.474e-7
0.302, 3.755e-7
0.303, 4.131e-7
0.304, 4.448e-7
0.305, 4.869e-7
0.306, 5.228e-7
0.307, 5.674e-7
0.308, 6.082e-7
0.309, 6.469e-7
0.310, 6.860e-7
0.311, 7.360e-7
0.312, 7.738e-7
0.313, 8.268e-7
0.314, 8.667e-7
0.315, 9.150e-7
0.316, 9.715e-7
0.317, 1.019e-6
0.318, 1.071e-6
0.319, 1.117e-6
0.320, 1.157e-6
0.321, 1.230e-6
0.322, 1.291e-6
0.323, 1.345e-6
0.324, 1.408e-6
0.325, 1.480e-6
0.326, 1.540e-6
0.327, 1.607e-6
0.328, 1.683e-6
0.329, 1.763e-6
0.330, 1.832e-6
0.331, 1.907e-6
0.332, 1.986e-6
0.333, 2.093e-6
0.334, 2.159e-6
0.335, 2.255e-6
0.336, 2.337e-6
0.337, 2.433e-6
0.338, 2.553e-6
0.339, 2.619e-6
0.340, 2.743e-6
0.341, 2.851e-6
0.342, 2.947e-6
0.343, 3.077e-6
0.344, 3.186e-6
0.345, 3.310e-6
0.346, 3.426e-6
0.347, 3.552e-6
0.348, 3.712e-6
0.349, 3.850e-6
0.350, 3.998e-6
0.351, 4.140e-6
0.352, 4.295e-6
0.353, 4.469e-6
0.354, 4.631e-6
0.355, 4.804e-6
0.356, 4.990e-6
0.357, 5.180e-6
0.358, 5.368e-6
0.359, 5.555e-6
0.360, 5.773e-6
0.361, 5.980e-6
0.362, 6.195e-6
0.363, 6.443e-6
0.364, 6.662e-6
0.365, 6.922e-6
0.366, 7.165e-6
0.367, 7.419e-6
0.368, 7.720e-6
0.369, 8.000e-6
0.370, 8.299e-6
0.371, 8.535e-6
0.372, 8.872e-6
0.373, 9.229e-6
0.374, 9.532e-6
0.375, 9.892e-6
0.376, 1.024e-5
0.377, 1.062e-5
0.378, 1.102e-5
0.379, 1.140e-5
0.380, 1.184e-5
0.381, 1.225e-5
0.382, 1.268e-5
0.383, 1.318e-5
0.384, 1.370e-5
0.385, 1.419e-5
0.386, 1.465e-5
0.387, 1.515e-5
0.388, 1.576e-5
0.389, 1.627e-5
0.390, 1.686e-5
0.391, 1.745e-5
0.392, 1.804e-5
0.393, 1.875e-5
0.394, 1.937e-5
0.395, 2.009e-5
0.396, 2.075e-5
0.397, 2.134e-5
0.398, 2.221e-5
0.399, 2.292e-5
0.400, 2.375e-5
0.401, 2.457e-5
0.402, 2.544e-5
0.403, 2.626e-5
0.404, 2.717e-5
0.405, 2.816e-5
0.406, 2.907e-5
0.407, 3.009e-5
0.408, 3.112e-5
0.409, 3.182e-5
0.410, 3.255e-5
0.411, 3.387e-5
0.412, 3.506e-5
0.413, 3.633e-5
0.414, 3.741e-5
0.415, 3.870e-5
0.416, 3.982e-5
0.417, 4.117e-5
0.418, 4.251e-5
0.419, 4.375e-5
0.420, 4.527e-5
0.421, 4.664e-5
0.422, 4.796e-5
0.423, 4.947e-5
0.424, 5.086e-5
0.425, 5.265e-5
0.426, 5.408e-5
0.427, 5.580e-5
0.428, 5.752e-5
0.429, 5.912e-5
0.430, 6.115e-5
0.431, 6.275e-5
0.432, 6.450e-5
0.433, 6.649e-5
0.434, 6.817e-5
0.435, 7.043e-5
0.436, 7.223e-5
0.437, 7.407e-5
0.438, 7.609e-5
0.439, 7.784e-5
0.440, 7.989e-5
0.441, 8.196e-5
0.442, 8.399e-5
0.443, 8.593e-5
0.444, 8.800e-5
0.445, 9.010e-5
0.446, 9.210e-5
0.447, 9.440e-5
0.448, 9.588e-5
0.449, 9.833e-5
0.450, 1.006e-4
0.451, 1.025e-4
0.452, 1.047e-4
0.453, 1.068e-4
0.454, 1.088e-4
0.455, 1.110e-4
0.456, 1.129e-4
0.457, 1.151e-4
0.458, 1.170e-4
0.459, 1.190e-4
0.460, 1.212e-4
0.461, 1.226e-4
0.462, 1.248e-4
0.463, 1.267e-4
0.464, 1.282e-4
0.465, 1.304e-4
0.466, 1.318e-4
0.467, 1.337e-4
0.468, 1.352e-4
0.469, 1.366e-4
0.470, 1.385e-4
0.471, 1.398e-4
0.472, 1.414e-4
0.473, 1.429e-4
0.474, 1.437e-4
0.475, 1.456e-4
0.476, 1.468e-4
0.477, 1.481e-4
0.478, 1.495e-4
0.479, 1.505e-4
0.480, 1.517e-4
0.481, 1.525e-4
0.482, 1.536e-4
0.483, 1.543e-4
0.484, 1.551e-4
0.485, 1.561e-4
0.486, 1.571e-4
0.487, 1.579e-4
0.488, 1.581e-4
0.489, 1.587e-4
0.490, 1.591e-4
0.491, 1.594e-4
0.492, 1.599e-4
0.493, 1.600e-4
0.494, 1.603e-4
0.495, 1.607e-4
0.496, 1.606e-4
0.497, 1.608e-4
0.498, 1.609e-4
0.499, 1.603e-4
0.500, 1.606e-4
0.501, 1.605e-4
0.502, 1.604e-4
0.503, 1.602e-4
0.504, 1.600e-4
0.505, 1.599e-4
0.506, 1.594e-4
0.507, 1.591e-4
0.508, 1.588e-4
0.509, 1.583e-4
0.510, 1.580e-4
0.511, 1.575e-4
0.512, 1.573e-4
0.513, 1.567e-4
0.514, 1.560e-4
0.515, 1.555e-4
0.516, 1.549e-4
0.517, 1.543e-4
0.518, 1.538e-4
0.519, 1.529e-4
0.520, 1.524e-4
0.521, 1.517e-4
0.522, 1.511e-4
0.523, 1.504e-4
0.524, 1.497e-4
0.525, 1.488e-4
0.526, 1.482e-4
0.527, 1.475e-4
0.528, 1.467e-4
0.529, 1.460e-4
0.530, 1.454e-4
0.531, 1.445e-4
0.532, 1.438e-4
0.533, 1.431e-4
0.534, 1.423e-4
0.535, 1.416e-4
0.536, 1.408e-4
0.537, 1.402e-4
0.538, 1.395e-4
0.539, 1.386e-4
0.540, 1.380e-4
0.541, 1.372e-4
0.542, 1.365e-4
0.543, 1.357e-4
0.544, 1.350e-4
0.545, 1.343e-4
0.546, 1.336e-4
0.547, 1.329e-4
0.548, 1.322e-4
0.549, 1.315e-4
0.550, 1.307e-4
0.551, 1.300e-4
0.552, 1.294e-4
0.553, 1.287e-4
0.554, 1.281e-4
0.555, 1.274e-4
0.556, 1.268e-4
0.557, 1.261e-4
0.558, 1.255e-4
0.559, 1.249e-4
0.560, 1.242e-4
0.561, 1.236e-4
0.562, 1.231e-4
0.563, 1.224e-4
0.564, 1.218e-4
0.565, 1.213e-4
0.566, 1.207e-4
0.567, 1.201e-4
0.568, 1.196e-4
0.569, 1.190e-4
0.570, 1.185e-4
0.571, 1.180e-4
0.572, 1.174e-4
0.573, 1.169e-4
0.574, 1.164e-4
0.575, 1.159e-4
0.576, 1.154e-4
0.577, 1.149e-4
0.578, 1.144e-4
0.579, 1.139e-4
0.580, 1.135e-4
0.581, 1.130e-4
0.582, 1.125e-4
0.583, 1.121e-4
0.584, 1.116e-4
0.585, 1.112e-4
0.586, 1.108e-4
0.587, 1.104e-4
0.588, 1.100e-4
0.589, 1.096e-4
0.590, 1.092e-4
0.591, 1.088e-4
0.592, 1.084e-4
0.593, 1.080e-4
0.594, 1.076e-4
0.595, 1.072e-4
0.596, 1.069e-4
0.597, 1.065e-4
0.598, 1.062e-4
0.599, 1.058e-4
0.600, 1.055e-4
0.601, 1.051e-4
0.602, 1.048e-4
0.603, 1.045e-4
0.604, 1.042e-4
0.605, 1.039e-4
0.606, 1.036e-4
0.607, 1.033e-4
0.608, 1.030e-4
0.609, 1.027e-4
0.610, 1.024e-4
0.611, 1.020e-4
0.612, 1.018e-4
0.613, 1.015e-4
0.614, 1.012e-4
0.615, 1.009e-4
0.616, 1.007e-4
0.617, 1.004e-4
0.618, 1.002e-4
0.619, 9.993e-5
0.620, 9.970e-5
0.621, 9.945e-5
0.622, 9.922e-5
0.623, 9.899e-5
0.624, 9.874e-5
0.625, 9.851e-5
0.626, 9.827e-5
0.627, 9.804e-5
0.628, 9.782e-5
0.629, 9.760e-5
0.630, 9.740e-5
0.631, 9.719e-5
0.632, 9.700e-5
0.633, 9.681e-5
0.634, 9.661e-5
0.635, 9.643e-5
0.636, 9.625e-5
0.637, 9.607e-5
0.638, 9.587e-5
0.639, 9.569e-5
0.640, 9.552e-5
0.641, 9.532e-5
0.642, 9.514e-5
0.643, 9.497e-5
0.644, 9.479e-5
0.645, 9.462e-5
0.646, 9.446e-5
0.647, 9.431e-5
0.648, 9.416e-5
0.649, 9.400e-5
0.650, 9.386e-5
0.651, 9.370e-5
0.652, 9.356e-5
0.653, 9.338e-5
0.654, 9.323e-5
0.655, 9.309e-5
0.656, 9.293e-5
0.657, 9.280e-5
0.658, 9.266e-5
0.659, 9.250e-5
0.660, 9.238e-5
0.661, 9.225e-5
0.662, 9.212e-5
0.663, 9.200e-5
0.664, 9.188e-5
0.665, 9.175e-5
0.666, 9.164e-5
0.667, 9.152e-5
0.668, 9.141e-5
0.669, 9.128e-5
0.670, 9.116e-5
0.671, 9.104e-5
0.672, 9.091e-5
0.673, 9.080e-5
0.674, 9.067e-5
0.675, 9.056e-5
0.676, 9.045e-5
0.677, 9.036e-5
0.678, 9.024e-5
0.679, 9.015e-5
0.680, 9.005e-5
0.681, 8.996e-5
0.682, 8.986e-5
0.683, 8.976e-5
0.684, 8.967e-5
0.685, 8.957e-5
0.686, 8.947e-5
0.687, 8.939e-5
0.688, 8.930e-5
0.689, 8.921e-5
0.690, 8.912e-5
0.691, 8.903e-5
0.692, 8.894e-5
0.693, 8.885e-5
0.694, 8.876e-5
0.695, 8.867e-5
0.696, 8.859e-5
0.697, 8.852e-5
0.698, 8.845e-5
0.699, 8.837e-5
0.700, 8.831e-5
0.701, 8.823e-5
0.702, 8.816e-5
0.703, 8.808e-5
0.704, 8.799e-5
0.705, 8.793e-5
0.706, 8.785e-5
0.707, 8.777e-5
0.708, 8.770e-5
0.709, 8.762e-5
0.710, 8.755e-5
0.711, 8.749e-5
0.712, 8.743e-5
0.713, 8.736e-5
0.714, 8.731e-5
0.715, 8.725e-5
0.716, 8.720e-5
0.717, 8.715e-5
0.718, 8.709e-5
0.719, 8.702e-5
0.720, 8.697e-5
0.721, 8.691e-5
0.722, 8.685e-5
0.723, 8.678e-5
0.724, 8.672e-5
0.725, 8.667e-5
0.726, 8.660e-5
0.727, 8.654e-5
0.728, 8.649e-5
0.729, 8.643e-5
0.730, 8.640e-5
0.731, 8.635e-5
0.732, 8.632e-5
0.733, 8.628e-5
0.734, 8.622e-5
0.735, 8.619e-5
0.736, 8.612e-5
0.737, 8.607e-5
0.738, 8.601e-5
0.739, 8.596e-5
0.740, 8.592e-5
0.741, 8.587e-5
0.742, 8.585e-5
0.743, 8.581e-5
0.744, 8.576e-5
0.745, 8.575e-5
0.746, 8.570e-5
0.747, 8.565e-5
0.748, 8.562e-5
0.749, 8.558e-5
0.750, 8.554e-5
0.751, 8.549e-5
0.752, 8.545e-5
0.753, 8.541e-5
0.754, 8.537e-5
0.755, 8.532e-5
0.756, 8.529e-5
0.757, 8.526e-5
0.758, 8.523e-5
0.759, 8.519e-5
0.760, 8.517e-5
0.761, 8.514e-5
0.762, 8.510e-5
0.763, 8.508e-5
0.764, 8.505e-5
0.765, 8.503e-5
0.766, 8.499e-5
0.767, 8.496e-5
0.768, 8.492e-5
0.769, 8.489e-5
0.770, 8.487e-5
0.771, 8.483e-5
0.772, 8.482e-5
0.773, 8.480e-5
0.774, 8.477e-5
0.775, 8.476e-5
0.776, 8.474e-5
0.777, 8.472e-5
0.778, 8.469e-5
0.779, 8.465e-5
0.780, 8.463e-5
0.781, 8.458e-5
0.782, 8.456e-5
0.783, 8.454e-5
0.784, 8.451e-5
0.785, 8.451e-5
0.786, 8.449e-5
0.787, 8.447e-5
0.788, 8.446e-5
0.789, 8.444e-5
0.790, 8.443e-5
0.791, 8.440e-5
0.792, 8.439e-5
0.793, 8.438e-5
0.794, 8.434e-5
0.795, 8.432e-5
0.796, 8.430e-5
0.797, 8.428e-5
0.798, 8.426e-5
0.799, 8.424e-5
0.800, 8.425e-5
0.801, 8.424e-5
0.802, 8.424e-5
0.803, 8.423e-5
0.804, 8.423e-5
0.805, 8.423e-5
0.806, 8.419e-5
0.807, 8.418e-5
0.808, 8.415e-5
0.809, 8.413e-5
0.810, 8.410e-5
0.811, 8.407e-5
0.812, 8.407e-5
0.813, 8.406e-5
0.814, 8.404e-5
0.815, 8.405e-5
0.816, 8.405e-5
0.817, 8.406e-5
0.818, 8.406e-5
0.819, 8.400e-5
0.820, 8.405e-5
0.821, 8.404e-5
0.822, 8.403e-5
0.823, 8.401e-5
0.824, 8.400e-5
0.825, 8.399e-5
0.826, 8.397e-5
0.827, 8.396e-5
0.828, 8.395e-5
0.829, 8.395e-5
0.830, 8.394e-5
0.831, 8.395e-5
0.832, 8.394e-5
0.833, 8.396e-5
0.834, 8.396e-5
0.835, 8.397e-5
0.836, 8.397e-5
0.837, 8.397e-5
0.838, 8.395e-5
0.839, 8.395e-5
0.840, 8.394e-5
0.841, 8.393e-5
0.842, 8.393e-5
0.843, 8.391e-5
0.844, 8.392e-5
0.845, 8.395e-5
0.846, 8.393e-5
0.847, 8.395e-5
0.848, 8.395e-5
0.849, 8.396e-5
0.850, 8.398e-5
0.851, 8.396e-5
0.852, 8.397e-5
0.853, 8.395e-5
0.854, 8.395e-5
0.855, 8.396e-5
0.856, 8.395e-5
0.857, 8.395e-5
0.858, 8.395e-5
0.859, 8.396e-5
0.860, 8.399e-5
0.861, 8.399e-5
0.862, 8.399e-5
0.863, 8.400e-5
0.864, 8.401e-5
0.865, 8.404e-5
0.866, 8.403e-5
0.867, 8.403e-5
0.868, 8.403e-5
0.869, 8.403e-5
0.870, 8.403e-5
0.871, 8.402e-5
0.872, 8.403e-5
0.873, 8.403e-5
0.874, 8.405e-5
0.875, 8.407e-5
0.876, 8.409e-5
0.877, 8.412e-5
0.878, 8.413e-5
0.879, 8.415e-5
0.880, 8.417e-5
0.881, 8.417e-5
0.882, 8.418e-5
0.883, 8.415e-5
0.884, 8.417e-5
0.885, 8.417e-5
0.886, 8.416e-5
0.887, 8.418e-5
0.888, 8.419e-5
0.889, 8.420e-5
0.890, 8.423e-5
0.891, 8.424e-5
0.892, 8.428e-5
0.893, 8.430e-5
0.894, 8.431e-5
0.895, 8.434e-5
0.896, 8.437e-5
0.897, 8.438e-5
0.898, 8.438e-5
0.899, 8.438e-5
0.900, 8.441e-5
0.901, 8.440e-5
0.902, 8.441e-5
0.903, 8.442e-5
0.904, 8.443e-5
0.905, 8.446e-5
0.906, 8.448e-5
0.907, 8.450e-5
0.908, 8.454e-5
0.909, 8.455e-5
0.910, 8.460e-5
0.911, 8.461e-5
0.912, 8.463e-5
0.913, 8.465e-5
0.914, 8.467e-5
0.915, 8.468e-5
0.916, 8.469e-5
0.917, 8.472e-5
0.918, 8.472e-5
0.919, 8.475e-5
0.920, 8.478e-5
0.921, 8.482e-5
0.922, 8.484e-5
0.923, 8.486e-5
0.924, 8.490e-5
0.925, 8.493e-5
0.926, 8.495e-5
0.927, 8.499e-5
0.928, 8.502e-5
0.929, 8.505e-5
0.930, 8.508e-5
0.931, 8.508e-5
0.932, 8.512e-5
0.933, 8.514e-5
0.934, 8.514e-5
0.935, 8.519e-5
0.936, 8.521e-5
0.937, 8.525e-5
0.938, 8.529e-5
0.939, 8.531e-5
0.940, 8.538e-5
0.941, 8.540e-5
0.942, 8.545e-5
0.943, 8.548e-5
0.944, 8.552e-5
0.945, 8.556e-5
0.946, 8.558e-5
0.947, 8.564e-5
0.948, 8.566e-5
0.949, 8.569e-5
0.950, 8.573e-5
0.951, 8.576e-5
0.952, 8.581e-5
0.953, 8.586e-5
0.954, 8.590e-5
0.955, 8.596e-5
0.956, 8.600e-5
0.957, 8.606e-5
0.958, 8.610e-5
0.959, 8.614e-5
0.960, 8.618e-5
0.961, 8.623e-5
0.962, 8.628e-5
0.963, 8.631e-5
0.964, 8.636e-5
0.965, 8.643e-5
0.966, 8.645e-5
0.967, 8.651e-5
0.968, 8.656e-5
0.969, 8.662e-5
0.970, 8.669e-5
0.971, 8.674e-5
0.972, 8.681e-5
0.973, 8.686e-5
0.974, 8.693e-5
0.975, 8.700e-5
0.976, 8.705e-5
0.977, 8.711e-5
0.978, 8.717e-5
0.979, 8.722e-5
0.980, 8.730e-5
0.981, 8.736e-5
0.982, 8.741e-5
0.983, 8.748e-5
0.984, 8.756e-5
0.985, 8.763e-5
0.986, 8.769e-5
0.987, 8.777e-5
0.988, 8.786e-5
0.989, 8.793e-5
0.990, 8.801e-5
0.991, 8.807e-5
0.992, 8.816e-5
0.993, 8.825e-5
0.994, 8.834e-5
0.995, 8.842e-5
0.996, 8.851e-5
0.997, 8.861e-5
0.998, 8.872e-5
0.999, 8.880e-5
1.000, 8.801e-5
0.999, 8.735e-5
0.998, 8.704e-5
0.997, 8.678e-5
0.996, 8.652e-5
0.995, 8.632e-5
0.994, 8.610e-5
0.993, 8.592e-5
0.992, 8.575e-5
0.991, 8.557e-5
0.990, 8.540e-5
0.989, 8.525e-5
0.988, 8.509e-5
0.987, 8.493e-5
0.986, 8.481e-5
0.985, 8.465e-5
0.984, 8.449e-5
0.983, 8.438e-5
0.982, 8.424e-5
0.981, 8.412e-5
0.980, 8.400e-5
0.979, 8.387e-5
0.978, 8.378e-5
0.977, 8.366e-5
0.976, 8.357e-5
0.975, 8.347e-5
0.974, 8.337e-5
0.973, 8.328e-5
0.972, 8.317e-5
0.971, 8.309e-5
0.970, 8.299e-5
0.969, 8.289e-5
0.968, 8.279e-5
0.967, 8.269e-5
0.966, 8.261e-5
0.965, 8.253e-5
0.964, 8.243e-5
0.963, 8.236e-5
0.962, 8.229e-5
0.961, 8.224e-5
0.960, 8.219e-5
0.959, 8.210e-5
0.958, 8.204e-5
0.957, 8.198e-5
0.956, 8.191e-5
0.955, 8.184e-5
0.954, 8.176e-5
0.953, 8.168e-5
0.952, 8.160e-5
0.951, 8.155e-5
0.950, 8.149e-5
0.949, 8.142e-5
0.948, 8.136e-5
0.947, 8.132e-5
0.946, 8.130e-5
0.945, 8.126e-5
0.944, 8.121e-5
0.943, 8.116e-5
0.942, 8.112e-5
0.941, 8.107e-5
0.940, 8.100e-5
0.939, 8.095e-5
0.938, 8.091e-5
0.937, 8.084e-5
0.936, 8.079e-5
0.935, 8.075e-5
0.934, 8.070e-5
0.933, 8.067e-5
0.932, 8.063e-5
0.931, 8.060e-5
0.930, 8.058e-5
0.929, 8.054e-5
0.928, 8.053e-5
0.927, 8.048e-5
0.926, 8.046e-5
0.925, 8.042e-5
0.924, 8.037e-5
0.923, 8.033e-5
0.922, 8.027e-5
0.921, 8.024e-5
0.920, 8.020e-5
0.919, 8.016e-5
0.918, 8.014e-5
0.917, 8.011e-5
0.916, 8.010e-5
0.915, 8.009e-5
0.914, 8.007e-5
0.913, 8.005e-5
0.912, 8.002e-5
0.911, 8.000e-5
0.910, 7.996e-5
0.909, 7.994e-5
0.908, 7.989e-5
0.907, 7.985e-5
0.906, 7.982e-5
0.905, 7.979e-5
0.904, 7.976e-5
0.903, 7.975e-5
0.902, 7.973e-5
0.901, 7.973e-5
0.900, 7.971e-5
0.899, 7.969e-5
0.898, 7.969e-5
0.897, 7.967e-5
0.896, 7.962e-5
0.895, 7.962e-5
0.894, 7.958e-5
0.893, 7.956e-5
0.892, 7.953e-5
0.891, 7.952e-5
0.890, 7.950e-5
0.889, 7.946e-5
0.888, 7.946e-5
0.887, 7.945e-5
0.886, 7.945e-5
0.885, 7.943e-5
0.884, 7.943e-5
0.883, 7.942e-5
0.882, 7.940e-5
0.881, 7.939e-5
0.880, 7.936e-5
0.879, 7.933e-5
0.878, 7.931e-5
0.877, 7.928e-5
0.876, 7.925e-5
0.875, 7.923e-5
0.874, 7.922e-5
0.873, 7.923e-5
0.872, 7.922e-5
0.871, 7.923e-5
0.870, 7.924e-5
0.869, 7.922e-5
0.868, 7.922e-5
0.867, 7.920e-5
0.866, 7.918e-5
0.865, 7.915e-5
0.864, 7.913e-5
0.863, 7.911e-5
0.862, 7.908e-5
0.861, 7.908e-5
0.860, 7.905e-5
0.859, 7.904e-5
0.858, 7.907e-5
0.857, 7.905e-5
0.856, 7.905e-5
0.855, 7.906e-5
0.854, 7.905e-5
0.853, 7.905e-5
0.852, 7.902e-5
0.851, 7.901e-5
0.850, 7.900e-5
0.849, 7.897e-5
0.848, 7.895e-5
0.847, 7.893e-5
0.846, 7.891e-5
0.845, 7.889e-5
0.844, 7.889e-5
0.843, 7.889e-5
0.842, 7.889e-5
0.841, 7.889e-5
0.840, 7.890e-5
0.839, 7.890e-5
0.838, 7.890e-5
0.837, 7.890e-5
0.836, 7.888e-5
0.835, 7.887e-5
0.834, 7.884e-5
0.833, 7.883e-5
0.832, 7.882e-5
0.831, 7.880e-5
0.830, 7.879e-5
0.829, 7.878e-5
0.828, 7.878e-5
0.827, 7.878e-5
0.826, 7.879e-5
0.825, 7.878e-5
0.824, 7.877e-5
0.823, 7.877e-5
0.822, 7.876e-5
0.821, 7.876e-5
0.820, 7.877e-5
0.819, 7.875e-5
0.818, 7.874e-5
0.817, 7.872e-5
0.816, 7.871e-5
0.815, 7.870e-5
0.814, 7.869e-5
0.813, 7.869e-5
0.812, 7.868e-5
0.811, 7.868e-5
0.810, 7.868e-5
0.809, 7.867e-5
0.808, 7.868e-5
0.807, 7.869e-5
0.806, 7.868e-5
0.805, 7.867e-5
0.804, 7.865e-5
0.803, 7.864e-5
0.802, 7.862e-5
0.801, 7.861e-5
0.800, 7.860e-5
0.799, 7.859e-5
0.798, 7.860e-5
0.797, 7.861e-5
0.796, 7.860e-5
0.795, 7.861e-5
0.794, 7.859e-5
0.793, 7.860e-5
0.792, 7.858e-5
0.791, 7.858e-5
0.790, 7.858e-5
0.789, 7.857e-5
0.788, 7.856e-5
0.787, 7.855e-5
0.786, 7.854e-5
0.785, 7.854e-5
0.784, 7.852e-5
0.783, 7.852e-5
0.782, 7.851e-5
0.781, 7.853e-5
0.780, 7.851e-5
0.779, 7.851e-5
0.778, 7.852e-5
0.777, 7.852e-5
0.776, 7.853e-5
0.775, 7.852e-5
0.774, 7.852e-5
0.773, 7.852e-5
0.772, 7.850e-5
0.771, 7.849e-5
0.770, 7.848e-5
0.769, 7.846e-5
0.768, 7.846e-5
0.767, 7.846e-5
0.766, 7.846e-5
0.765, 7.845e-5
0.764, 7.845e-5
0.763, 7.845e-5
0.762, 7.846e-5
0.761, 7.846e-5
0.760, 7.844e-5
0.759, 7.844e-5
0.758, 7.844e-5
0.757, 7.844e-5
0.756, 7.843e-5
0.755, 7.842e-5
0.754, 7.841e-5
0.753, 7.841e-5
0.752, 7.840e-5
0.751, 7.840e-5
0.750, 7.839e-5
0.749, 7.839e-5
0.748, 7.840e-5
0.747, 7.839e-5
0.746, 7.840e-5
0.745, 7.838e-5
0.744, 7.838e-5
0.743, 7.838e-5
0.742, 7.838e-5
0.741, 7.837e-5
0.740, 7.836e-5
0.739, 7.835e-5
0.738, 7.836e-5
0.737, 7.834e-5
0.736, 7.833e-5
0.735, 7.833e-5
0.734, 7.832e-5
0.733, 7.833e-5
0.732, 7.832e-5
0.731, 7.832e-5
0.730, 7.833e-5
0.729, 7.831e-5
0.728, 7.831e-5
0.727, 7.830e-5
0.726, 7.830e-5
0.725, 7.829e-5
0.724, 7.828e-5
0.723, 7.829e-5
0.722, 7.829e-5
0.721, 7.828e-5
0.720, 7.828e-5
0.719, 7.828e-5
0.718, 7.827e-5
0.717, 7.825e-5
0.716, 7.826e-5
0.715, 7.825e-5
0.714, 7.825e-5
0.713, 7.825e-5
0.712, 7.824e-5
0.711, 7.823e-5
0.710, 7.823e-5
0.709, 7.823e-5
0.708, 7.822e-5
0.707, 7.821e-5
0.706, 7.821e-5
0.705, 7.821e-5
0.704, 7.821e-5
0.703, 7.821e-5
0.702, 7.819e-5
0.701, 7.819e-5
0.700, 7.817e-5
0.699, 7.816e-5
0.698, 7.817e-5
0.697, 7.815e-5
0.696, 7.815e-5
0.695, 7.815e-5
0.694, 7.815e-5
0.693, 7.816e-5
0.692, 7.814e-5
0.691, 7.815e-5
0.690, 7.815e-5
0.689, 7.814e-5
0.688, 7.814e-5
0.687, 7.811e-5
0.686, 7.811e-5
0.685, 7.809e-5
0.684, 7.808e-5
0.683, 7.808e-5
0.682, 7.807e-5
0.681, 7.806e-5
0.680, 7.805e-5
0.679, 7.806e-5
0.678, 7.806e-5
0.677, 7.805e-5
0.676, 7.805e-5
0.675, 7.804e-5
0.674, 7.804e-5
0.673, 7.804e-5
0.672, 7.801e-5
0.671, 7.800e-5
0.670, 7.798e-5
0.669, 7.798e-5
0.668, 7.797e-5
0.667, 7.794e-5
0.666, 7.795e-5
0.665, 7.794e-5
0.664, 7.792e-5
0.663, 7.792e-5
0.662, 7.792e-5
0.661, 7.792e-5
0.660, 7.791e-5
0.659, 7.791e-5
0.658, 7.789e-5
0.657, 7.787e-5
0.656, 7.786e-5
0.655, 7.783e-5
0.654, 7.781e-5
0.653, 7.780e-5
0.652, 7.777e-5
0.651, 7.775e-5
0.650, 7.774e-5
0.649, 7.773e-5
0.648, 7.773e-5
0.647, 7.772e-5
0.646, 7.772e-5
0.645, 7.771e-5
0.644, 7.768e-5
0.643, 7.768e-5
0.642, 7.766e-5
0.641, 7.763e-5
0.640, 7.758e-5
0.639, 7.757e-5
0.638, 7.755e-5
0.637, 7.752e-5
0.636, 7.748e-5
0.635, 7.746e-5
0.634, 7.744e-5
0.633, 7.742e-5
0.632, 7.739e-5
0.631, 7.738e-5
0.630, 7.736e-5
0.629, 7.735e-5
0.628, 7.733e-5
0.627, 7.730e-5
0.626, 7.726e-5
0.625, 7.722e-5
0.624, 7.717e-5
0.623, 7.713e-5
0.622, 7.707e-5
0.621, 7.704e-5
0.620, 7.699e-5
0.619, 7.696e-5
0.618, 7.693e-5
0.617, 7.688e-5
0.616, 7.685e-5
0.615, 7.685e-5
0.614, 7.680e-5
0.613, 7.675e-5
0.612, 7.667e-5
0.611, 7.662e-5
0.610, 7.656e-5
0.609, 7.648e-5
0.608, 7.642e-5
0.607, 7.635e-5
0.606, 7.627e-5
0.605, 7.620e-5
0.604, 7.613e-5
0.603, 7.607e-5
0.602, 7.602e-5
0.601, 7.595e-5
0.600, 7.586e-5
0.599, 7.578e-5
0.598, 7.571e-5
0.597, 7.561e-5
0.596, 7.550e-5
0.595, 7.541e-5
0.594, 7.531e-5
0.593, 7.518e-5
0.592, 7.507e-5
0.591, 7.496e-5
0.590, 7.484e-5
0.589, 7.469e-5
0.588, 7.457e-5
0.587, 7.445e-5
0.586, 7.434e-5
0.585, 7.418e-5
0.584, 7.405e-5
0.583, 7.389e-5
0.582, 7.374e-5
0.581, 7.358e-5
0.580, 7.336e-5
0.579, 7.322e-5
0.578, 7.303e-5
0.577, 7.281e-5
0.576, 7.267e-5
0.575, 7.243e-5
0.574, 7.224e-5
0.573, 7.202e-5
0.572, 7.178e-5
0.571, 7.155e-5
0.570, 7.132e-5
0.569, 7.106e-5
0.568, 7.079e-5
0.567, 7.049e-5
0.566, 7.022e-5
0.565, 6.992e-5
0.564, 6.959e-5
0.563, 6.927e-5
0.562, 6.894e-5
0.561, 6.862e-5
0.560, 6.823e-5
0.559, 6.788e-5
0.558, 6.751e-5
0.557, 6.713e-5
0.556, 6.671e-5
0.555, 6.627e-5
0.554, 6.589e-5
0.553, 6.538e-5
0.552, 6.490e-5
0.551, 6.447e-5
0.550, 6.395e-5
0.549, 6.342e-5
0.548, 6.286e-5
0.547, 6.225e-5
0.546, 6.174e-5
0.545, 6.107e-5
0.544, 6.050e-5
0.543, 5.983e-5
0.542, 5.915e-5
0.541, 5.854e-5
0.540, 5.781e-5
0.539, 5.707e-5
0.538, 5.617e-5
0.537, 5.540e-5
0.536, 5.469e-5
0.535, 5.378e-5
0.534, 5.292e-5
0.533, 5.202e-5
0.532, 5.105e-5
0.531, 5.020e-5
0.530, 4.919e-5
0.529, 4.814e-5
0.528, 4.721e-5
0.527, 4.605e-5
0.526, 4.502e-5
0.525, 4.404e-5
0.524, 4.283e-5
0.523, 4.152e-5
0.522, 4.036e-5
0.521, 3.916e-5
0.520, 3.771e-5
0.519, 3.644e-5
0.518, 3.505e-5
0.517, 3.361e-5
0.516, 3.228e-5
0.515, 3.065e-5
0.514, 2.927e-5
0.513, 2.768e-5
0.512, 2.575e-5
0.511, 2.443e-5
0.510, 2.268e-5
0.509, 2.122e-5
0.508, 1.930e-5
0.507, 1.757e-5
0.506, 1.597e-5
0.505, 1.410e-5
0.504, 1.241e-5
0.503, 1.034e-5
0.502, 8.582e-6
0.501, 6.922e-6
0.500, 4.804e-6
0.499, 3.402e-6
0.498, 1.069e-6
0.497, -1.024e-6
0.496, -2.718e-6
0.495, -5.073e-6
0.494, -7.096e-6
0.493, -9.162e-6
0.492, -1.134e-5
0.491, -1.342e-5
0.490, -1.564e-5
0.489, -1.771e-5
0.488, -1.984e-5
0.487, -2.243e-5
0.486, -2.463e-5
0.485, -2.675e-5
0.484, -2.891e-5
0.483, -3.105e-5
0.482, -3.318e-5
0.481, -3.525e-5
0.480, -3.747e-5
0.479, -3.950e-5
0.478, -4.183e-5
0.477, -4.374e-5
0.476, -4.590e-5
0.475, -4.812e-5
0.474, -4.966e-5
0.473, -5.169e-5
0.472, -5.369e-5
0.471, -5.572e-5
0.470, -5.758e-5
0.469, -5.914e-5
0.468, -6.136e-5
0.467, -6.286e-5
0.466, -6.443e-5
0.465, -6.624e-5
0.464, -6.744e-5
0.463, -6.930e-5
0.462, -7.060e-5
0.461, -7.151e-5
0.460, -7.327e-5
0.459, -7.439e-5
0.458, -7.570e-5
0.457, -7.695e-5
0.456, -7.774e-5
0.455, -7.919e-5
0.454, -7.978e-5
0.453, -8.085e-5
0.452, -8.165e-5
0.451, -8.229e-5
0.450, -8.333e-5
0.449, -8.385e-5
0.448, -8.400e-5
0.447, -8.490e-5
0.446, -8.537e-5
0.445, -8.599e-5
0.444, -8.608e-5
0.443, -8.675e-5
0.442, -8.687e-5
0.441, -8.695e-5
0.440, -8.716e-5
0.439, -8.723e-5
0.438, -8.738e-5
0.437, -8.730e-5
0.436, -8.747e-5
0.435, -8.784e-5
0.434, -8.730e-5
0.433, -8.712e-5
0.432, -8.681e-5
0.431, -8.649e-5
0.430, -8.635e-5
0.429, -8.571e-5
0.428, -8.553e-5
0.427, -8.509e-5
0.426, -8.456e-5
0.425, -8.423e-5
0.424, -8.358e-5
0.423, -8.310e-5
0.422, -8.233e-5
0.421, -8.183e-5
0.420, -8.140e-5
0.419, -8.066e-5
0.418, -8.006e-5
0.417, -7.939e-5
0.416, -7.867e-5
0.415, -7.814e-5
0.414, -7.735e-5
0.413, -7.667e-5
0.412, -7.595e-5
0.411, -7.518e-5
0.410, -7.384e-5
0.409, -7.325e-5
0.408, -7.270e-5
0.407, -7.200e-5
0.406, -7.121e-5
0.405, -7.053e-5
0.404, -6.973e-5
0.403, -6.900e-5
0.402, -6.822e-5
0.401, -6.742e-5
0.400, -6.672e-5
0.399, -6.597e-5
0.398, -6.523e-5
0.397, -6.433e-5
0.396, -6.361e-5
0.395, -6.294e-5
0.394, -6.215e-5
0.393, -6.144e-5
0.392, -6.067e-5
0.391, -5.992e-5
0.390, -5.921e-5
0.389, -5.843e-5
0.388, -5.775e-5
0.387, -5.701e-5
0.386, -5.626e-5
0.385, -5.560e-5
0.384, -5.500e-5
0.383, -5.423e-5
0.382, -5.354e-5
0.381, -5.284e-5
0.380, -5.220e-5
0.379, -5.151e-5
0.378, -5.086e-5
0.377, -5.020e-5
0.376, -4.953e-5
0.375, -4.893e-5
0.374, -4.827e-5
0.373, -4.765e-5
0.372, -4.705e-5
0.371, -4.639e-5
0.370, -4.582e-5
0.369, -4.523e-5
0.368, -4.465e-5
0.367, -4.410e-5
0.366, -4.352e-5
0.365, -4.296e-5
0.364, -4.242e-5
0.363, -4.189e-5
0.362, -4.134e-5
0.361, -4.081e-5
0.360, -4.030e-5
0.359, -3.978e-5
0.358, -3.926e-5
0.357, -3.876e-5
0.356, -3.827e-5
0.355, -3.780e-5
0.354, -3.731e-5
0.353, -3.685e-5
0.352, -3.639e-5
0.351, -3.594e-5
0.350, -3.549e-5
0.349, -3.505e-5
0.348, -3.463e-5
0.347, -3.420e-5
0.346, -3.375e-5
0.345, -3.335e-5
0.344, -3.294e-5
0.343, -3.255e-5
0.342, -3.215e-5
0.341, -3.174e-5
0.340, -3.137e-5
0.339, -3.098e-5
0.338, -3.061e-5
0.337, -3.025e-5
0.336, -2.988e-5
0.335, -2.953e-5
0.334, -2.918e-5
0.333, -2.886e-5
0.332, -2.851e-5
0.331, -2.816e-5
0.330, -2.783e-5
0.329, -2.751e-5
0.328, -2.719e-5
0.327, -2.687e-5
0.326, -2.655e-5
0.325, -2.625e-5
0.324, -2.595e-5
0.323, -2.566e-5
0.322, -2.536e-5
0.321, -2.507e-5
0.320, -2.478e-5
0.319, -2.451e-5
0.318, -2.424e-5
0.317, -2.396e-5
0.316, -2.370e-5
0.315, -2.344e-5
0.314, -2.317e-5
0.313, -2.292e-5
0.312, -2.267e-5
0.311, -2.241e-5
0.310, -2.218e-5
0.309, -2.194e-5
0.308, -2.172e-5
0.307, -2.148e-5
0.306, -2.124e-5
0.305, -2.102e-5
0.304, -2.080e-5
0.303, -2.058e-5
0.302, -2.035e-5
0.301, -2.014e-5
0.300, -1.994e-5
0.299, -1.973e-5
0.298, -1.953e-5
0.297, -1.933e-5
0.296, -1.913e-5
0.295, -1.894e-5
0.294, -1.874e-5
0.293, -1.856e-5
0.292, -1.837e-5
0.291, -1.818e-5
0.290, -1.800e-5
0.289, -1.782e-5
0.288, -1.765e-5
0.287, -1.748e-5
0.286, -1.730e-5
0.285, -1.714e-5
0.284, -1.698e-5
0.283, -1.681e-5
0.282, -1.666e-5
0.281, -1.649e-5
0.280, -1.634e-5
0.279, -1.618e-5
0.278, -1.603e-5
0.277, -1.587e-5
0.276, -1.573e-5
0.275, -1.558e-5
0.274, -1.543e-5
0.273, -1.529e-5
0.272, -1.515e-5
0.271, -1.501e-5
0.270, -1.488e-5
0.269, -1.473e-5
0.268, -1.461e-5
0.267, -1.448e-5
0.266, -1.434e-5
0.265, -1.422e-5
0.264, -1.409e-5
0.263, -1.397e-5
0.262, -1.385e-5
0.261, -1.373e-5
0.260, -1.362e-5
0.259, -1.350e-5
0.258, -1.338e-5
0.257, -1.327e-5
0.256, -1.315e-5
0.255, -1.305e-5
0.254, -1.294e-5
0.253, -1.283e-5
0.252, -1.273e-5
0.251, -1.262e-5
0.250, -1.252e-5
0.249, -1.242e-5
0.248, -1.232e-5
0.247, -1.222e-5
0.246, -1.212e-5
0.245, -1.203e-5
0.244, -1.193e-5
0.243, -1.184e-5
0.242, -1.174e-5
0.241, -1.164e-5
0.240, -1.156e-5
0.239, -1.147e-5
0.238, -1.139e-5
0.237, -1.130e-5
0.236, -1.122e-5
0.235, -1.114e-5
0.234, -1.105e-5
0.233, -1.097e-5
0.232, -1.089e-5
0.231, -1.081e-5
0.230, -1.073e-5
0.229, -1.065e-5
0.228, -1.058e-5
0.227, -1.050e-5
0.226, -1.042e-5
0.225, -1.035e-5
0.224, -1.028e-5
0.223, -1.021e-5
0.222, -1.014e-5
0.221, -1.007e-5
0.220, -1.001e-5
0.219, -9.936e-6
0.218, -9.860e-6
0.217, -9.805e-6
0.216, -9.742e-6
0.215, -9.681e-6
0.214, -9.614e-6
0.213, -9.552e-6
0.212, -9.496e-6
0.211, -9.433e-6
0.210, -9.371e-6
0.209, -9.315e-6
0.208, -9.258e-6
0.207, -9.203e-6
0.206, -9.141e-6
0.205, -9.071e-6
0.204, -9.029e-6
0.203, -8.978e-6
0.202, -8.921e-6
0.201, -8.869e-6
0.200, -8.822e-6
0.199, -8.763e-6
0.198, -8.717e-6
0.197, -8.664e-6
0.196, -8.619e-6
0.195, -8.573e-6
0.194, -8.519e-6
0.193, -8.474e-6
0.192, -8.423e-6
0.191, -8.380e-6
0.190, -8.336e-6
0.189, -8.293e-6
0.188, -8.251e-6
0.187, -8.210e-6
0.186, -8.156e-6
0.185, -8.124e-6
0.184, -8.084e-6
0.183, -8.040e-6
0.182, -8.001e-6
0.181, -7.956e-6
0.180, -7.929e-6
0.179, -7.884e-6
0.178, -7.842e-6
0.177, -7.803e-6
0.176, -7.764e-6
0.175, -7.728e-6
0.174, -7.693e-6
0.173, -7.659e-6
0.172, -7.625e-6
0.171, -7.583e-6
0.170, -7.550e-6
0.169, -7.522e-6
0.168, -7.486e-6
0.167, -7.448e-6
0.166, -7.416e-6
0.165, -7.389e-6
0.164, -7.361e-6
0.163, -7.330e-6
0.162, -7.295e-6
0.161, -7.266e-6
0.160, -7.244e-6
0.159, -7.208e-6
0.158, -7.183e-6
0.157, -7.154e-6
0.156, -7.126e-6
0.155, -7.101e-6
0.154, -7.068e-6
0.153, -7.039e-6
0.152, -7.017e-6
0.151, -6.988e-6
0.150, -6.967e-6
0.149, -6.939e-6
0.148, -6.916e-6
0.147, -6.891e-6
0.146, -6.862e-6
0.145, -6.844e-6
0.144, -6.817e-6
0.143, -6.795e-6
0.142, -6.774e-6
0.141, -6.741e-6
0.140, -6.730e-6
0.139, -6.702e-6
0.138, -6.684e-6
0.137, -6.666e-6
0.136, -6.647e-6
0.135, -6.624e-6
0.134, -6.603e-6
0.133, -6.583e-6
0.132, -6.567e-6
0.131, -6.543e-6
0.130, -6.525e-6
0.129, -6.504e-6
0.128, -6.496e-6
0.127, -6.472e-6
0.126, -6.452e-6
0.125, -6.434e-6
0.124, -6.423e-6
0.123, -6.408e-6
0.122, -6.384e-6
0.121, -6.370e-6
0.120, -6.354e-6
0.119, -6.342e-6
0.118, -6.323e-6
0.117, -6.304e-6
0.116, -6.285e-6
0.115, -6.274e-6
0.114, -6.257e-6
0.113, -6.249e-6
0.112, -6.230e-6
0.111, -6.214e-6
0.110, -6.206e-6
0.109, -6.189e-6
0.108, -6.182e-6
0.107, -6.163e-6
0.106, -6.149e-6
0.105, -6.143e-6
0.104, -6.129e-6
0.103, -6.122e-6
0.102, -6.098e-6
0.101, -6.086e-6
0.100, -6.082e-6
0.099, -6.066e-6
0.098, -6.053e-6
0.097, -6.039e-6
0.096, -6.031e-6
0.095, -6.021e-6
0.094, -6.010e-6
0.093, -5.998e-6
0.092, -5.986e-6
0.091, -5.979e-6
0.090, -5.962e-6
0.089, -5.957e-6
0.088, -5.947e-6
0.087, -5.938e-6
0.086, -5.932e-6
0.085, -5.924e-6
0.084, -5.911e-6
0.083, -5.904e-6
0.082, -5.892e-6
0.081, -5.887e-6
0.080, -5.881e-6
0.079, -5.871e-6
0.078, -5.862e-6
0.077, -5.861e-6
0.076, -5.852e-6
0.075, -5.845e-6
0.074, -5.831e-6
0.073, -5.830e-6
0.072, -5.821e-6
0.071, -5.812e-6
0.070, -5.807e-6
0.069, -5.795e-6
0.068, -5.796e-6
0.067, -5.782e-6
0.066, -5.774e-6
0.065, -5.769e-6
0.064, -5.757e-6
0.063, -5.760e-6
0.062, -5.749e-6
0.061, -5.742e-6
0.060, -5.744e-6
0.059, -5.736e-6
0.058, -5.729e-6
0.057, -5.725e-6
0.056, -5.718e-6
0.055, -5.715e-6
0.054, -5.708e-6
0.053, -5.705e-6
0.052, -5.696e-6
0.051, -5.691e-6
0.050, -5.689e-6
0.049, -5.684e-6
0.048, -5.682e-6
0.047, -5.674e-6
0.046, -5.668e-6
0.045, -5.667e-6
0.044, -5.663e-6
0.043, -5.662e-6
0.042, -5.651e-6
0.041, -5.650e-6
0.040, -5.650e-6
0.039, -5.636e-6
0.038, -5.636e-6
0.037, -5.632e-6
0.036, -5.632e-6
0.035, -5.630e-6
0.034, -5.621e-6
0.033, -5.622e-6
0.032, -5.618e-6
0.031, -5.614e-6
0.030, -5.614e-6
0.029, -5.609e-6
0.028, -5.609e-6
0.027, -5.606e-6
0.026, -5.608e-6
0.025, -5.605e-6
0.024, -5.597e-6
0.023, -5.592e-6
0.022, -5.593e-6
0.021, -5.590e-6
0.020, -5.593e-6
0.019, -5.584e-6
0.018, -5.579e-6
0.017, -5.582e-6
0.016, -5.580e-6
0.015, -5.581e-6
0.014, -5.574e-6
0.013, -5.568e-6
0.012, -5.574e-6
0.011, -5.573e-6
0.010, -5.570e-6
0.009, -5.566e-6
0.008, -5.567e-6
0.007, -5.564e-6
0.006, -5.565e-6
0.005, -5.560e-6
0.004, -5.560e-6
0.003, -5.561e-6
0.002, -5.557e-6
0.001, -5.558e-6
