May 7, 2026   14:48:14
Cyclic Voltammetry
File: mecn_ar_0.1mtbapf6_3mmfc_1mmfe-tpypy2me_-1.7_to_1v_500mvs
Data Source:  Experiment
Instrument Model:  CHI660D
Header: 
Note: 

Init E (V) = 0
High E (V) = 1
Low E (V) = -1.7
Final E (V) = 0
Init P/N = N
Scan Rate (V/s) = 0.5
Segment = 3
Sample Interval (V) = 0.001
Quiet Time (sec) = 2
Sensitivity (A/V) = 1e-4
Comp R (ohm) = 131.5

Results:

Channel 1:
Segment 1:
Ep = -1.021V
ip = -7.490e-5A
Ah = -1.546e-5C

Segment 2:
Ep = -0.896V
ip = 6.663e-5A
Ah = 1.485e-5C

Ep = 0.182V
ip = 2.642e-6A
Ah = 5.438e-7C

Ep = 0.490V
ip = 2.653e-4A
Ah = 3.191e-5C

Segment 3:
Ep = 0.435V
ip = -2.581e-4A
Ah = -3.412e-5C

Potential/V, Current/A

0.000, -2.709e-6
-0.001, -3.196e-6
-0.002, -3.501e-6
-0.003, -3.592e-6
-0.004, -3.684e-6
-0.005, -3.775e-6
-0.006, -3.927e-6
-0.007, -3.958e-6
-0.008, -4.019e-6
-0.009, -4.080e-6
-0.010, -4.171e-6
-0.011, -4.232e-6
-0.012, -4.293e-6
-0.013, -4.323e-6
-0.014, -4.384e-6
-0.015, -4.445e-6
-0.016, -4.475e-6
-0.017, -4.536e-6
-0.018, -4.597e-6
-0.019, -4.597e-6
-0.020, -4.658e-6
-0.021, -4.658e-6
-0.022, -4.719e-6
-0.023, -4.780e-6
-0.024, -4.780e-6
-0.025, -4.841e-6
-0.026, -4.902e-6
-0.027, -4.932e-6
-0.028, -4.902e-6
-0.029, -4.963e-6
-0.030, -5.054e-6
-0.031, -5.054e-6
-0.032, -5.024e-6
-0.033, -5.145e-6
-0.034, -5.176e-6
-0.035, -5.176e-6
-0.036, -5.176e-6
-0.037, -5.237e-6
-0.038, -5.267e-6
-0.039, -5.328e-6
-0.040, -5.328e-6
-0.041, -5.328e-6
-0.042, -5.419e-6
-0.043, -5.450e-6
-0.044, -5.450e-6
-0.045, -5.480e-6
-0.046, -5.572e-6
-0.047, -5.572e-6
-0.048, -5.602e-6
-0.049, -5.633e-6
-0.050, -5.633e-6
-0.051, -5.663e-6
-0.052, -5.724e-6
-0.053, -5.754e-6
-0.054, -5.815e-6
-0.055, -5.785e-6
-0.056, -5.846e-6
-0.057, -5.876e-6
-0.058, -5.968e-6
-0.059, -5.937e-6
-0.060, -5.968e-6
-0.061, -5.998e-6
-0.062, -6.059e-6
-0.063, -6.120e-6
-0.064, -6.029e-6
-0.065, -6.089e-6
-0.066, -6.120e-6
-0.067, -6.272e-6
-0.068, -6.242e-6
-0.069, -6.242e-6
-0.070, -6.272e-6
-0.071, -6.364e-6
-0.072, -6.333e-6
-0.073, -6.394e-6
-0.074, -6.394e-6
-0.075, -6.455e-6
-0.076, -6.516e-6
-0.077, -6.516e-6
-0.078, -6.546e-6
-0.079, -6.607e-6
-0.080, -6.607e-6
-0.081, -6.638e-6
-0.082, -6.607e-6
-0.083, -6.699e-6
-0.084, -6.729e-6
-0.085, -6.759e-6
-0.086, -6.729e-6
-0.087, -6.851e-6
-0.088, -6.820e-6
-0.089, -6.759e-6
-0.090, -6.912e-6
-0.091, -6.881e-6
-0.092, -6.973e-6
-0.093, -6.942e-6
-0.094, -7.003e-6
-0.095, -7.064e-6
-0.096, -7.125e-6
-0.097, -7.064e-6
-0.098, -7.155e-6
-0.099, -7.186e-6
-0.100, -7.216e-6
-0.101, -7.216e-6
-0.102, -7.277e-6
-0.103, -7.308e-6
-0.104, -7.338e-6
-0.105, -7.308e-6
-0.106, -7.399e-6
-0.107, -7.399e-6
-0.108, -7.521e-6
-0.109, -7.490e-6
-0.110, -7.551e-6
-0.111, -7.521e-6
-0.112, -7.582e-6
-0.113, -7.612e-6
-0.114, -7.704e-6
-0.115, -7.612e-6
-0.116, -7.704e-6
-0.117, -7.795e-6
-0.118, -7.795e-6
-0.119, -7.825e-6
-0.120, -7.825e-6
-0.121, -7.917e-6
-0.122, -7.886e-6
-0.123, -7.978e-6
-0.124, -8.038e-6
-0.125, -8.038e-6
-0.126, -8.038e-6
-0.127, -8.069e-6
-0.128, -8.221e-6
-0.129, -8.160e-6
-0.130, -8.252e-6
-0.131, -8.221e-6
-0.132, -8.282e-6
-0.133, -8.343e-6
-0.134, -8.343e-6
-0.135, -8.373e-6
-0.136, -8.404e-6
-0.137, -8.434e-6
-0.138, -8.495e-6
-0.139, -8.495e-6
-0.140, -8.587e-6
-0.141, -8.556e-6
-0.142, -8.587e-6
-0.143, -8.648e-6
-0.144, -8.708e-6
-0.145, -8.708e-6
-0.146, -8.708e-6
-0.147, -8.708e-6
-0.148, -8.830e-6
-0.149, -8.830e-6
-0.150, -8.830e-6
-0.151, -8.891e-6
-0.152, -8.922e-6
-0.153, -8.952e-6
-0.154, -8.952e-6
-0.155, -9.013e-6
-0.156, -9.043e-6
-0.157, -9.104e-6
-0.158, -9.074e-6
-0.159, -9.165e-6
-0.160, -9.165e-6
-0.161, -9.226e-6
-0.162, -9.226e-6
-0.163, -9.257e-6
-0.164, -9.378e-6
-0.165, -9.378e-6
-0.166, -9.287e-6
-0.167, -9.409e-6
-0.168, -9.439e-6
-0.169, -9.470e-6
-0.170, -9.500e-6
-0.171, -9.531e-6
-0.172, -9.531e-6
-0.173, -9.622e-6
-0.174, -9.622e-6
-0.175, -9.683e-6
-0.176, -9.653e-6
-0.177, -9.713e-6
-0.178, -9.805e-6
-0.179, -9.896e-6
-0.180, -9.835e-6
-0.181, -9.896e-6
-0.182, -9.866e-6
-0.183, -9.927e-6
-0.184, -9.988e-6
-0.185, -1.002e-5
-0.186, -1.002e-5
-0.187, -1.005e-5
-0.188, -1.005e-5
-0.189, -1.020e-5
-0.190, -1.014e-5
-0.191, -1.017e-5
-0.192, -1.014e-5
-0.193, -1.026e-5
-0.194, -1.029e-5
-0.195, -1.029e-5
-0.196, -1.032e-5
-0.197, -1.035e-5
-0.198, -1.041e-5
-0.199, -1.041e-5
-0.200, -1.041e-5
-0.201, -1.051e-5
-0.202, -1.051e-5
-0.203, -1.051e-5
-0.204, -1.054e-5
-0.205, -1.063e-5
-0.206, -1.063e-5
-0.207, -1.063e-5
-0.208, -1.060e-5
-0.209, -1.069e-5
-0.210, -1.072e-5
-0.211, -1.069e-5
-0.212, -1.072e-5
-0.213, -1.081e-5
-0.214, -1.081e-5
-0.215, -1.084e-5
-0.216, -1.090e-5
-0.217, -1.084e-5
-0.218, -1.093e-5
-0.219, -1.093e-5
-0.220, -1.099e-5
-0.221, -1.102e-5
-0.222, -1.102e-5
-0.223, -1.102e-5
-0.224, -1.105e-5
-0.225, -1.108e-5
-0.226, -1.118e-5
-0.227, -1.114e-5
-0.228, -1.121e-5
-0.229, -1.124e-5
-0.230, -1.133e-5
-0.231, -1.130e-5
-0.232, -1.130e-5
-0.233, -1.127e-5
-0.234, -1.139e-5
-0.235, -1.136e-5
-0.236, -1.142e-5
-0.237, -1.145e-5
-0.238, -1.145e-5
-0.239, -1.151e-5
-0.240, -1.151e-5
-0.241, -1.148e-5
-0.242, -1.160e-5
-0.243, -1.148e-5
-0.244, -1.157e-5
-0.245, -1.163e-5
-0.246, -1.166e-5
-0.247, -1.172e-5
-0.248, -1.163e-5
-0.249, -1.166e-5
-0.250, -1.181e-5
-0.251, -1.175e-5
-0.252, -1.181e-5
-0.253, -1.181e-5
-0.254, -1.188e-5
-0.255, -1.188e-5
-0.256, -1.191e-5
-0.257, -1.191e-5
-0.258, -1.200e-5
-0.259, -1.197e-5
-0.260, -1.200e-5
-0.261, -1.203e-5
-0.262, -1.209e-5
-0.263, -1.209e-5
-0.264, -1.209e-5
-0.265, -1.212e-5
-0.266, -1.218e-5
-0.267, -1.215e-5
-0.268, -1.218e-5
-0.269, -1.215e-5
-0.270, -1.227e-5
-0.271, -1.224e-5
-0.272, -1.218e-5
-0.273, -1.227e-5
-0.274, -1.233e-5
-0.275, -1.233e-5
-0.276, -1.236e-5
-0.277, -1.239e-5
-0.278, -1.239e-5
-0.279, -1.245e-5
-0.280, -1.239e-5
-0.281, -1.252e-5
-0.282, -1.252e-5
-0.283, -1.248e-5
-0.284, -1.248e-5
-0.285, -1.255e-5
-0.286, -1.258e-5
-0.287, -1.261e-5
-0.288, -1.252e-5
-0.289, -1.261e-5
-0.290, -1.267e-5
-0.291, -1.264e-5
-0.292, -1.267e-5
-0.293, -1.270e-5
-0.294, -1.258e-5
-0.295, -1.276e-5
-0.296, -1.270e-5
-0.297, -1.279e-5
-0.298, -1.276e-5
-0.299, -1.279e-5
-0.300, -1.285e-5
-0.301, -1.288e-5
-0.302, -1.288e-5
-0.303, -1.294e-5
-0.304, -1.291e-5
-0.305, -1.294e-5
-0.306, -1.294e-5
-0.307, -1.306e-5
-0.308, -1.306e-5
-0.309, -1.297e-5
-0.310, -1.303e-5
-0.311, -1.309e-5
-0.312, -1.306e-5
-0.313, -1.306e-5
-0.314, -1.306e-5
-0.315, -1.312e-5
-0.316, -1.319e-5
-0.317, -1.322e-5
-0.318, -1.319e-5
-0.319, -1.328e-5
-0.320, -1.315e-5
-0.321, -1.322e-5
-0.322, -1.325e-5
-0.323, -1.331e-5
-0.324, -1.328e-5
-0.325, -1.334e-5
-0.326, -1.334e-5
-0.327, -1.343e-5
-0.328, -1.337e-5
-0.329, -1.334e-5
-0.330, -1.334e-5
-0.331, -1.340e-5
-0.332, -1.343e-5
-0.333, -1.346e-5
-0.334, -1.346e-5
-0.335, -1.346e-5
-0.336, -1.349e-5
-0.337, -1.346e-5
-0.338, -1.352e-5
-0.339, -1.352e-5
-0.340, -1.358e-5
-0.341, -1.355e-5
-0.342, -1.358e-5
-0.343, -1.364e-5
-0.344, -1.358e-5
-0.345, -1.349e-5
-0.346, -1.361e-5
-0.347, -1.364e-5
-0.348, -1.367e-5
-0.349, -1.364e-5
-0.350, -1.367e-5
-0.351, -1.373e-5
-0.352, -1.373e-5
-0.353, -1.370e-5
-0.354, -1.376e-5
-0.355, -1.367e-5
-0.356, -1.379e-5
-0.357, -1.376e-5
-0.358, -1.373e-5
-0.359, -1.379e-5
-0.360, -1.382e-5
-0.361, -1.382e-5
-0.362, -1.386e-5
-0.363, -1.386e-5
-0.364, -1.389e-5
-0.365, -1.389e-5
-0.366, -1.389e-5
-0.367, -1.395e-5
-0.368, -1.395e-5
-0.369, -1.392e-5
-0.370, -1.395e-5
-0.371, -1.386e-5
-0.372, -1.404e-5
-0.373, -1.401e-5
-0.374, -1.395e-5
-0.375, -1.395e-5
-0.376, -1.404e-5
-0.377, -1.407e-5
-0.378, -1.404e-5
-0.379, -1.401e-5
-0.380, -1.416e-5
-0.381, -1.407e-5
-0.382, -1.407e-5
-0.383, -1.407e-5
-0.384, -1.419e-5
-0.385, -1.413e-5
-0.386, -1.419e-5
-0.387, -1.413e-5
-0.388, -1.419e-5
-0.389, -1.419e-5
-0.390, -1.416e-5
-0.391, -1.416e-5
-0.392, -1.422e-5
-0.393, -1.419e-5
-0.394, -1.416e-5
-0.395, -1.413e-5
-0.396, -1.425e-5
-0.397, -1.428e-5
-0.398, -1.422e-5
-0.399, -1.416e-5
-0.400, -1.425e-5
-0.401, -1.422e-5
-0.402, -1.425e-5
-0.403, -1.428e-5
-0.404, -1.425e-5
-0.405, -1.428e-5
-0.406, -1.422e-5
-0.407, -1.434e-5
-0.408, -1.428e-5
-0.409, -1.395e-5
-0.410, -1.416e-5
-0.411, -1.425e-5
-0.412, -1.431e-5
-0.413, -1.431e-5
-0.414, -1.428e-5
-0.415, -1.428e-5
-0.416, -1.428e-5
-0.417, -1.428e-5
-0.418, -1.428e-5
-0.419, -1.428e-5
-0.420, -1.431e-5
-0.421, -1.434e-5
-0.422, -1.422e-5
-0.423, -1.431e-5
-0.424, -1.428e-5
-0.425, -1.428e-5
-0.426, -1.431e-5
-0.427, -1.440e-5
-0.428, -1.431e-5
-0.429, -1.437e-5
-0.430, -1.434e-5
-0.431, -1.437e-5
-0.432, -1.440e-5
-0.433, -1.434e-5
-0.434, -1.437e-5
-0.435, -1.446e-5
-0.436, -1.440e-5
-0.437, -1.446e-5
-0.438, -1.443e-5
-0.439, -1.437e-5
-0.440, -1.437e-5
-0.441, -1.440e-5
-0.442, -1.443e-5
-0.443, -1.443e-5
-0.444, -1.437e-5
-0.445, -1.446e-5
-0.446, -1.446e-5
-0.447, -1.446e-5
-0.448, -1.431e-5
-0.449, -1.443e-5
-0.450, -1.446e-5
-0.451, -1.443e-5
-0.452, -1.443e-5
-0.453, -1.446e-5
-0.454, -1.440e-5
-0.455, -1.449e-5
-0.456, -1.443e-5
-0.457, -1.446e-5
-0.458, -1.449e-5
-0.459, -1.437e-5
-0.460, -1.443e-5
-0.461, -1.446e-5
-0.462, -1.446e-5
-0.463, -1.437e-5
-0.464, -1.440e-5
-0.465, -1.443e-5
-0.466, -1.443e-5
-0.467, -1.434e-5
-0.468, -1.440e-5
-0.469, -1.437e-5
-0.470, -1.440e-5
-0.471, -1.434e-5
-0.472, -1.440e-5
-0.473, -1.434e-5
-0.474, -1.440e-5
-0.475, -1.437e-5
-0.476, -1.443e-5
-0.477, -1.443e-5
-0.478, -1.440e-5
-0.479, -1.440e-5
-0.480, -1.434e-5
-0.481, -1.440e-5
-0.482, -1.443e-5
-0.483, -1.437e-5
-0.484, -1.443e-5
-0.485, -1.443e-5
-0.486, -1.449e-5
-0.487, -1.443e-5
-0.488, -1.437e-5
-0.489, -1.437e-5
-0.490, -1.443e-5
-0.491, -1.440e-5
-0.492, -1.443e-5
-0.493, -1.440e-5
-0.494, -1.440e-5
-0.495, -1.449e-5
-0.496, -1.437e-5
-0.497, -1.437e-5
-0.498, -1.440e-5
-0.499, -1.431e-5
-0.500, -1.437e-5
-0.501, -1.440e-5
-0.502, -1.443e-5
-0.503, -1.440e-5
-0.504, -1.434e-5
-0.505, -1.428e-5
-0.506, -1.443e-5
-0.507, -1.440e-5
-0.508, -1.440e-5
-0.509, -1.437e-5
-0.510, -1.443e-5
-0.511, -1.440e-5
-0.512, -1.446e-5
-0.513, -1.437e-5
-0.514, -1.440e-5
-0.515, -1.440e-5
-0.516, -1.437e-5
-0.517, -1.443e-5
-0.518, -1.440e-5
-0.519, -1.443e-5
-0.520, -1.437e-5
-0.521, -1.437e-5
-0.522, -1.443e-5
-0.523, -1.437e-5
-0.524, -1.434e-5
-0.525, -1.437e-5
-0.526, -1.440e-5
-0.527, -1.440e-5
-0.528, -1.437e-5
-0.529, -1.431e-5
-0.530, -1.440e-5
-0.531, -1.434e-5
-0.532, -1.434e-5
-0.533, -1.431e-5
-0.534, -1.434e-5
-0.535, -1.437e-5
-0.536, -1.428e-5
-0.537, -1.443e-5
-0.538, -1.443e-5
-0.539, -1.434e-5
-0.540, -1.431e-5
-0.541, -1.437e-5
-0.542, -1.434e-5
-0.543, -1.443e-5
-0.544, -1.431e-5
-0.545, -1.431e-5
-0.546, -1.437e-5
-0.547, -1.437e-5
-0.548, -1.431e-5
-0.549, -1.431e-5
-0.550, -1.425e-5
-0.551, -1.437e-5
-0.552, -1.431e-5
-0.553, -1.431e-5
-0.554, -1.434e-5
-0.555, -1.425e-5
-0.556, -1.431e-5
-0.557, -1.437e-5
-0.558, -1.431e-5
-0.559, -1.431e-5
-0.560, -1.431e-5
-0.561, -1.434e-5
-0.562, -1.434e-5
-0.563, -1.425e-5
-0.564, -1.431e-5
-0.565, -1.431e-5
-0.566, -1.431e-5
-0.567, -1.434e-5
-0.568, -1.434e-5
-0.569, -1.431e-5
-0.570, -1.434e-5
-0.571, -1.440e-5
-0.572, -1.434e-5
-0.573, -1.434e-5
-0.574, -1.428e-5
-0.575, -1.437e-5
-0.576, -1.425e-5
-0.577, -1.428e-5
-0.578, -1.425e-5
-0.579, -1.434e-5
-0.580, -1.440e-5
-0.581, -1.437e-5
-0.582, -1.431e-5
-0.583, -1.431e-5
-0.584, -1.434e-5
-0.585, -1.428e-5
-0.586, -1.434e-5
-0.587, -1.431e-5
-0.588, -1.437e-5
-0.589, -1.431e-5
-0.590, -1.431e-5
-0.591, -1.437e-5
-0.592, -1.434e-5
-0.593, -1.431e-5
-0.594, -1.431e-5
-0.595, -1.437e-5
-0.596, -1.431e-5
-0.597, -1.437e-5
-0.598, -1.425e-5
-0.599, -1.434e-5
-0.600, -1.434e-5
-0.601, -1.419e-5
-0.602, -1.425e-5
-0.603, -1.428e-5
-0.604, -1.434e-5
-0.605, -1.431e-5
-0.606, -1.431e-5
-0.607, -1.428e-5
-0.608, -1.431e-5
-0.609, -1.422e-5
-0.610, -1.437e-5
-0.611, -1.434e-5
-0.612, -1.434e-5
-0.613, -1.425e-5
-0.614, -1.413e-5
-0.615, -1.431e-5
-0.616, -1.428e-5
-0.617, -1.428e-5
-0.618, -1.431e-5
-0.619, -1.434e-5
-0.620, -1.431e-5
-0.621, -1.428e-5
-0.622, -1.431e-5
-0.623, -1.431e-5
-0.624, -1.428e-5
-0.625, -1.428e-5
-0.626, -1.437e-5
-0.627, -1.419e-5
-0.628, -1.434e-5
-0.629, -1.434e-5
-0.630, -1.431e-5
-0.631, -1.428e-5
-0.632, -1.431e-5
-0.633, -1.434e-5
-0.634, -1.440e-5
-0.635, -1.434e-5
-0.636, -1.434e-5
-0.637, -1.437e-5
-0.638, -1.434e-5
-0.639, -1.434e-5
-0.640, -1.440e-5
-0.641, -1.431e-5
-0.642, -1.434e-5
-0.643, -1.428e-5
-0.644, -1.440e-5
-0.645, -1.443e-5
-0.646, -1.434e-5
-0.647, -1.434e-5
-0.648, -1.446e-5
-0.649, -1.434e-5
-0.650, -1.437e-5
-0.651, -1.431e-5
-0.652, -1.446e-5
-0.653, -1.437e-5
-0.654, -1.437e-5
-0.655, -1.440e-5
-0.656, -1.443e-5
-0.657, -1.440e-5
-0.658, -1.446e-5
-0.659, -1.440e-5
-0.660, -1.446e-5
-0.661, -1.443e-5
-0.662, -1.443e-5
-0.663, -1.443e-5
-0.664, -1.449e-5
-0.665, -1.440e-5
-0.666, -1.443e-5
-0.667, -1.443e-5
-0.668, -1.446e-5
-0.669, -1.449e-5
-0.670, -1.443e-5
-0.671, -1.443e-5
-0.672, -1.449e-5
-0.673, -1.446e-5
-0.674, -1.446e-5
-0.675, -1.443e-5
-0.676, -1.446e-5
-0.677, -1.453e-5
-0.678, -1.437e-5
-0.679, -1.453e-5
-0.680, -1.443e-5
-0.681, -1.446e-5
-0.682, -1.446e-5
-0.683, -1.446e-5
-0.684, -1.449e-5
-0.685, -1.459e-5
-0.686, -1.449e-5
-0.687, -1.456e-5
-0.688, -1.453e-5
-0.689, -1.453e-5
-0.690, -1.453e-5
-0.691, -1.462e-5
-0.692, -1.459e-5
-0.693, -1.462e-5
-0.694, -1.459e-5
-0.695, -1.456e-5
-0.696, -1.459e-5
-0.697, -1.459e-5
-0.698, -1.465e-5
-0.699, -1.456e-5
-0.700, -1.462e-5
-0.701, -1.468e-5
-0.702, -1.462e-5
-0.703, -1.471e-5
-0.704, -1.449e-5
-0.705, -1.459e-5
-0.706, -1.468e-5
-0.707, -1.471e-5
-0.708, -1.468e-5
-0.709, -1.468e-5
-0.710, -1.468e-5
-0.711, -1.468e-5
-0.712, -1.468e-5
-0.713, -1.468e-5
-0.714, -1.480e-5
-0.715, -1.477e-5
-0.716, -1.477e-5
-0.717, -1.483e-5
-0.718, -1.480e-5
-0.719, -1.477e-5
-0.720, -1.480e-5
-0.721, -1.486e-5
-0.722, -1.486e-5
-0.723, -1.480e-5
-0.724, -1.486e-5
-0.725, -1.492e-5
-0.726, -1.495e-5
-0.727, -1.495e-5
-0.728, -1.486e-5
-0.729, -1.486e-5
-0.730, -1.504e-5
-0.731, -1.501e-5
-0.732, -1.498e-5
-0.733, -1.498e-5
-0.734, -1.510e-5
-0.735, -1.504e-5
-0.736, -1.498e-5
-0.737, -1.510e-5
-0.738, -1.510e-5
-0.739, -1.510e-5
-0.740, -1.513e-5
-0.741, -1.523e-5
-0.742, -1.529e-5
-0.743, -1.520e-5
-0.744, -1.516e-5
-0.745, -1.526e-5
-0.746, -1.532e-5
-0.747, -1.526e-5
-0.748, -1.526e-5
-0.749, -1.538e-5
-0.750, -1.535e-5
-0.751, -1.538e-5
-0.752, -1.529e-5
-0.753, -1.535e-5
-0.754, -1.544e-5
-0.755, -1.529e-5
-0.756, -1.544e-5
-0.757, -1.553e-5
-0.758, -1.553e-5
-0.759, -1.553e-5
-0.760, -1.559e-5
-0.761, -1.553e-5
-0.762, -1.568e-5
-0.763, -1.562e-5
-0.764, -1.568e-5
-0.765, -1.574e-5
-0.766, -1.580e-5
-0.767, -1.571e-5
-0.768, -1.574e-5
-0.769, -1.583e-5
-0.770, -1.593e-5
-0.771, -1.590e-5
-0.772, -1.596e-5
-0.773, -1.602e-5
-0.774, -1.599e-5
-0.775, -1.605e-5
-0.776, -1.611e-5
-0.777, -1.614e-5
-0.778, -1.617e-5
-0.779, -1.623e-5
-0.780, -1.626e-5
-0.781, -1.632e-5
-0.782, -1.629e-5
-0.783, -1.638e-5
-0.784, -1.641e-5
-0.785, -1.647e-5
-0.786, -1.650e-5
-0.787, -1.663e-5
-0.788, -1.675e-5
-0.789, -1.672e-5
-0.790, -1.675e-5
-0.791, -1.690e-5
-0.792, -1.690e-5
-0.793, -1.705e-5
-0.794, -1.708e-5
-0.795, -1.711e-5
-0.796, -1.714e-5
-0.797, -1.721e-5
-0.798, -1.736e-5
-0.799, -1.739e-5
-0.800, -1.742e-5
-0.801, -1.745e-5
-0.802, -1.772e-5
-0.803, -1.766e-5
-0.804, -1.775e-5
-0.805, -1.787e-5
-0.806, -1.787e-5
-0.807, -1.809e-5
-0.808, -1.806e-5
-0.809, -1.815e-5
-0.810, -1.839e-5
-0.811, -1.845e-5
-0.812, -1.858e-5
-0.813, -1.864e-5
-0.814, -1.876e-5
-0.815, -1.891e-5
-0.816, -1.897e-5
-0.817, -1.915e-5
-0.818, -1.928e-5
-0.819, -1.918e-5
-0.820, -1.949e-5
-0.821, -1.964e-5
-0.822, -1.976e-5
-0.823, -1.992e-5
-0.824, -2.001e-5
-0.825, -2.010e-5
-0.826, -2.049e-5
-0.827, -2.049e-5
-0.828, -2.068e-5
-0.829, -2.086e-5
-0.830, -2.110e-5
-0.831, -2.126e-5
-0.832, -2.119e-5
-0.833, -2.147e-5
-0.834, -2.174e-5
-0.835, -2.193e-5
-0.836, -2.208e-5
-0.837, -2.235e-5
-0.838, -2.256e-5
-0.839, -2.287e-5
-0.840, -2.299e-5
-0.841, -2.330e-5
-0.842, -2.345e-5
-0.843, -2.369e-5
-0.844, -2.397e-5
-0.845, -2.433e-5
-0.846, -2.457e-5
-0.847, -2.488e-5
-0.848, -2.500e-5
-0.849, -2.537e-5
-0.850, -2.567e-5
-0.851, -2.595e-5
-0.852, -2.622e-5
-0.853, -2.643e-5
-0.854, -2.686e-5
-0.855, -2.719e-5
-0.856, -2.750e-5
-0.857, -2.771e-5
-0.858, -2.823e-5
-0.859, -2.869e-5
-0.860, -2.890e-5
-0.861, -2.933e-5
-0.862, -2.963e-5
-0.863, -3.021e-5
-0.864, -3.039e-5
-0.865, -3.088e-5
-0.866, -3.131e-5
-0.867, -3.170e-5
-0.868, -3.216e-5
-0.869, -3.261e-5
-0.870, -3.295e-5
-0.871, -3.353e-5
-0.872, -3.395e-5
-0.873, -3.435e-5
-0.874, -3.481e-5
-0.875, -3.536e-5
-0.876, -3.581e-5
-0.877, -3.639e-5
-0.878, -3.682e-5
-0.879, -3.746e-5
-0.880, -3.782e-5
-0.881, -3.831e-5
-0.882, -3.898e-5
-0.883, -3.931e-5
-0.884, -3.989e-5
-0.885, -4.059e-5
-0.886, -4.102e-5
-0.887, -4.178e-5
-0.888, -4.230e-5
-0.889, -4.273e-5
-0.890, -4.340e-5
-0.891, -4.400e-5
-0.892, -4.461e-5
-0.893, -4.513e-5
-0.894, -4.571e-5
-0.895, -4.644e-5
-0.896, -4.714e-5
-0.897, -4.763e-5
-0.898, -4.821e-5
-0.899, -4.879e-5
-0.900, -4.933e-5
-0.901, -4.997e-5
-0.902, -5.052e-5
-0.903, -5.119e-5
-0.904, -5.168e-5
-0.905, -5.238e-5
-0.906, -5.293e-5
-0.907, -5.351e-5
-0.908, -5.405e-5
-0.909, -5.457e-5
-0.910, -5.512e-5
-0.911, -5.588e-5
-0.912, -5.637e-5
-0.913, -5.698e-5
-0.914, -5.756e-5
-0.915, -5.810e-5
-0.916, -5.859e-5
-0.917, -5.914e-5
-0.918, -5.972e-5
-0.919, -6.030e-5
-0.920, -6.069e-5
-0.921, -6.148e-5
-0.922, -6.194e-5
-0.923, -6.237e-5
-0.924, -6.304e-5
-0.925, -6.340e-5
-0.926, -6.392e-5
-0.927, -6.450e-5
-0.928, -6.496e-5
-0.929, -6.532e-5
-0.930, -6.584e-5
-0.931, -6.636e-5
-0.932, -6.694e-5
-0.933, -6.721e-5
-0.934, -6.736e-5
-0.935, -6.815e-5
-0.936, -6.861e-5
-0.937, -6.904e-5
-0.938, -6.955e-5
-0.939, -6.998e-5
-0.940, -7.059e-5
-0.941, -7.071e-5
-0.942, -7.126e-5
-0.943, -7.184e-5
-0.944, -7.220e-5
-0.945, -7.257e-5
-0.946, -7.312e-5
-0.947, -7.370e-5
-0.948, -7.412e-5
-0.949, -7.443e-5
-0.950, -7.488e-5
-0.951, -7.537e-5
-0.952, -7.580e-5
-0.953, -7.604e-5
-0.954, -7.668e-5
-0.955, -7.699e-5
-0.956, -7.762e-5
-0.957, -7.787e-5
-0.958, -7.836e-5
-0.959, -7.887e-5
-0.960, -7.915e-5
-0.961, -7.973e-5
-0.962, -8.015e-5
-0.963, -8.064e-5
-0.964, -8.128e-5
-0.965, -8.152e-5
-0.966, -8.189e-5
-0.967, -8.244e-5
-0.968, -8.295e-5
-0.969, -8.350e-5
-0.970, -8.396e-5
-0.971, -8.432e-5
-0.972, -8.499e-5
-0.973, -8.524e-5
-0.974, -8.573e-5
-0.975, -8.627e-5
-0.976, -8.673e-5
-0.977, -8.740e-5
-0.978, -8.777e-5
-0.979, -8.822e-5
-0.980, -8.871e-5
-0.981, -8.923e-5
-0.982, -8.962e-5
-0.983, -9.008e-5
-0.984, -9.063e-5
-0.985, -9.087e-5
-0.986, -9.151e-5
-0.987, -9.176e-5
-0.988, -9.246e-5
-0.989, -9.276e-5
-0.990, -9.319e-5
-0.991, -9.349e-5
-0.992, -9.413e-5
-0.993, -9.434e-5
-0.994, -9.471e-5
-0.995, -9.514e-5
-0.996, -9.565e-5
-0.997, -9.602e-5
-0.998, -9.663e-5
-0.999, -9.666e-5
-1.000, -9.687e-5
-1.001, -9.733e-5
-1.002, -9.751e-5
-1.003, -9.775e-5
-1.004, -9.824e-5
-1.005, -9.858e-5
-1.006, -9.855e-5
-1.007, -9.876e-5
-1.008, -9.885e-5
-1.009, -9.931e-5
-1.010, -9.928e-5
-1.011, -9.916e-5
-1.012, -9.964e-5
-1.013, -9.973e-5
-1.014, -9.983e-5
-1.015, -9.983e-5
-1.016, -9.986e-5
-1.017, -1.001e-4
-1.018, -1.000e-4
-1.019, -1.000e-4
-1.020, -1.001e-4
-1.021, -1.003e-4
-1.022, -1.001e-4
-1.023, -1.001e-4
-1.024, -9.940e-5
-1.025, -9.989e-5
-1.026, -9.980e-5
-1.027, -9.980e-5
-1.028, -9.980e-5
-1.029, -9.976e-5
-1.030, -9.952e-5
-1.031, -9.952e-5
-1.032, -9.937e-5
-1.033, -9.922e-5
-1.034, -9.906e-5
-1.035, -9.894e-5
-1.036, -9.873e-5
-1.037, -9.864e-5
-1.038, -9.836e-5
-1.039, -9.836e-5
-1.040, -9.803e-5
-1.041, -9.803e-5
-1.042, -9.772e-5
-1.043, -9.751e-5
-1.044, -9.745e-5
-1.045, -9.718e-5
-1.046, -9.687e-5
-1.047, -9.675e-5
-1.048, -9.638e-5
-1.049, -9.648e-5
-1.050, -9.608e-5
-1.051, -9.587e-5
-1.052, -9.553e-5
-1.053, -9.538e-5
-1.054, -9.507e-5
-1.055, -9.483e-5
-1.056, -9.453e-5
-1.057, -9.444e-5
-1.058, -9.410e-5
-1.059, -9.377e-5
-1.060, -9.346e-5
-1.061, -9.331e-5
-1.062, -9.294e-5
-1.063, -9.288e-5
-1.064, -9.246e-5
-1.065, -9.224e-5
-1.066, -9.212e-5
-1.067, -9.182e-5
-1.068, -9.148e-5
-1.069, -9.133e-5
-1.070, -9.099e-5
-1.071, -9.078e-5
-1.072, -9.038e-5
-1.073, -9.035e-5
-1.074, -9.002e-5
-1.075, -8.962e-5
-1.076, -8.944e-5
-1.077, -8.926e-5
-1.078, -8.898e-5
-1.079, -8.874e-5
-1.080, -8.844e-5
-1.081, -8.825e-5
-1.082, -8.810e-5
-1.083, -8.774e-5
-1.084, -8.746e-5
-1.085, -8.728e-5
-1.086, -8.710e-5
-1.087, -8.682e-5
-1.088, -8.640e-5
-1.089, -8.624e-5
-1.090, -8.618e-5
-1.091, -8.585e-5
-1.092, -8.560e-5
-1.093, -8.545e-5
-1.094, -8.518e-5
-1.095, -8.487e-5
-1.096, -8.472e-5
-1.097, -8.451e-5
-1.098, -8.432e-5
-1.099, -8.402e-5
-1.100, -8.393e-5
-1.101, -8.369e-5
-1.102, -8.347e-5
-1.103, -8.320e-5
-1.104, -8.298e-5
-1.105, -8.277e-5
-1.106, -8.268e-5
-1.107, -8.238e-5
-1.108, -8.222e-5
-1.109, -8.201e-5
-1.110, -8.183e-5
-1.111, -8.158e-5
-1.112, -8.140e-5
-1.113, -8.107e-5
-1.114, -8.097e-5
-1.115, -8.082e-5
-1.116, -8.067e-5
-1.117, -8.040e-5
-1.118, -8.030e-5
-1.119, -8.009e-5
-1.120, -7.991e-5
-1.121, -7.967e-5
-1.122, -7.957e-5
-1.123, -7.939e-5
-1.124, -7.918e-5
-1.125, -7.906e-5
-1.126, -7.896e-5
-1.127, -7.872e-5
-1.128, -7.851e-5
-1.129, -7.829e-5
-1.130, -7.823e-5
-1.131, -7.802e-5
-1.132, -7.781e-5
-1.133, -7.762e-5
-1.134, -7.747e-5
-1.135, -7.729e-5
-1.136, -7.720e-5
-1.137, -7.695e-5
-1.138, -7.695e-5
-1.139, -7.665e-5
-1.140, -7.659e-5
-1.141, -7.638e-5
-1.142, -7.625e-5
-1.143, -7.610e-5
-1.144, -7.604e-5
-1.145, -7.574e-5
-1.146, -7.568e-5
-1.147, -7.555e-5
-1.148, -7.540e-5
-1.149, -7.522e-5
-1.150, -7.510e-5
-1.151, -7.491e-5
-1.152, -7.491e-5
-1.153, -7.470e-5
-1.154, -7.461e-5
-1.155, -7.449e-5
-1.156, -7.424e-5
-1.157, -7.412e-5
-1.158, -7.406e-5
-1.159, -7.388e-5
-1.160, -7.376e-5
-1.161, -7.357e-5
-1.162, -7.351e-5
-1.163, -7.333e-5
-1.164, -7.321e-5
-1.165, -7.303e-5
-1.166, -7.297e-5
-1.167, -7.287e-5
-1.168, -7.272e-5
-1.169, -7.251e-5
-1.170, -7.248e-5
-1.171, -7.239e-5
-1.172, -7.220e-5
-1.173, -7.211e-5
-1.174, -7.199e-5
-1.175, -7.193e-5
-1.176, -7.169e-5
-1.177, -7.163e-5
-1.178, -7.156e-5
-1.179, -7.141e-5
-1.180, -7.126e-5
-1.181, -7.114e-5
-1.182, -7.102e-5
-1.183, -7.102e-5
-1.184, -7.074e-5
-1.185, -7.071e-5
-1.186, -7.068e-5
-1.187, -7.050e-5
-1.188, -7.041e-5
-1.189, -7.032e-5
-1.190, -7.010e-5
-1.191, -7.010e-5
-1.192, -6.998e-5
-1.193, -6.980e-5
-1.194, -6.977e-5
-1.195, -6.965e-5
-1.196, -6.959e-5
-1.197, -6.943e-5
-1.198, -6.934e-5
-1.199, -6.922e-5
-1.200, -6.913e-5
-1.201, -6.907e-5
-1.202, -6.895e-5
-1.203, -6.892e-5
-1.204, -6.879e-5
-1.205, -6.870e-5
-1.206, -6.858e-5
-1.207, -6.849e-5
-1.208, -6.834e-5
-1.209, -6.828e-5
-1.210, -6.815e-5
-1.211, -6.803e-5
-1.212, -6.797e-5
-1.213, -6.791e-5
-1.214, -6.776e-5
-1.215, -6.773e-5
-1.216, -6.758e-5
-1.217, -6.745e-5
-1.218, -6.745e-5
-1.219, -6.733e-5
-1.220, -6.721e-5
-1.221, -6.712e-5
-1.222, -6.691e-5
-1.223, -6.703e-5
-1.224, -6.687e-5
-1.225, -6.672e-5
-1.226, -6.663e-5
-1.227, -6.663e-5
-1.228, -6.651e-5
-1.229, -6.639e-5
-1.230, -6.627e-5
-1.231, -6.624e-5
-1.232, -6.614e-5
-1.233, -6.608e-5
-1.234, -6.593e-5
-1.235, -6.587e-5
-1.236, -6.578e-5
-1.237, -6.569e-5
-1.238, -6.560e-5
-1.239, -6.547e-5
-1.240, -6.544e-5
-1.241, -6.520e-5
-1.242, -6.523e-5
-1.243, -6.517e-5
-1.244, -6.511e-5
-1.245, -6.496e-5
-1.246, -6.486e-5
-1.247, -6.483e-5
-1.248, -6.468e-5
-1.249, -6.456e-5
-1.250, -6.450e-5
-1.251, -6.456e-5
-1.252, -6.435e-5
-1.253, -6.429e-5
-1.254, -6.419e-5
-1.255, -6.416e-5
-1.256, -6.401e-5
-1.257, -6.389e-5
-1.258, -6.386e-5
-1.259, -6.374e-5
-1.260, -6.368e-5
-1.261, -6.349e-5
-1.262, -6.352e-5
-1.263, -6.340e-5
-1.264, -6.331e-5
-1.265, -6.316e-5
-1.266, -6.316e-5
-1.267, -6.298e-5
-1.268, -6.301e-5
-1.269, -6.289e-5
-1.270, -6.282e-5
-1.271, -6.273e-5
-1.272, -6.261e-5
-1.273, -6.252e-5
-1.274, -6.246e-5
-1.275, -6.237e-5
-1.276, -6.228e-5
-1.277, -6.222e-5
-1.278, -6.206e-5
-1.279, -6.203e-5
-1.280, -6.191e-5
-1.281, -6.182e-5
-1.282, -6.179e-5
-1.283, -6.167e-5
-1.284, -6.161e-5
-1.285, -6.151e-5
-1.286, -6.148e-5
-1.287, -6.130e-5
-1.288, -6.133e-5
-1.289, -6.115e-5
-1.290, -6.112e-5
-1.291, -6.097e-5
-1.292, -6.100e-5
-1.293, -6.081e-5
-1.294, -6.075e-5
-1.295, -6.072e-5
-1.296, -6.060e-5
-1.297, -6.057e-5
-1.298, -6.039e-5
-1.299, -6.039e-5
-1.300, -6.024e-5
-1.301, -6.017e-5
-1.302, -6.005e-5
-1.303, -6.002e-5
-1.304, -5.996e-5
-1.305, -5.993e-5
-1.306, -5.978e-5
-1.307, -5.972e-5
-1.308, -5.966e-5
-1.309, -5.957e-5
-1.310, -5.941e-5
-1.311, -5.932e-5
-1.312, -5.929e-5
-1.313, -5.926e-5
-1.314, -5.917e-5
-1.315, -5.905e-5
-1.316, -5.905e-5
-1.317, -5.893e-5
-1.318, -5.874e-5
-1.319, -5.877e-5
-1.320, -5.865e-5
-1.321, -5.856e-5
-1.322, -5.850e-5
-1.323, -5.841e-5
-1.324, -5.835e-5
-1.325, -5.826e-5
-1.326, -5.810e-5
-1.327, -5.807e-5
-1.328, -5.807e-5
-1.329, -5.792e-5
-1.330, -5.789e-5
-1.331, -5.780e-5
-1.332, -5.771e-5
-1.333, -5.759e-5
-1.334, -5.750e-5
-1.335, -5.737e-5
-1.336, -5.737e-5
-1.337, -5.725e-5
-1.338, -5.719e-5
-1.339, -5.707e-5
-1.340, -5.692e-5
-1.341, -5.692e-5
-1.342, -5.689e-5
-1.343, -5.679e-5
-1.344, -5.655e-5
-1.345, -5.658e-5
-1.346, -5.646e-5
-1.347, -5.643e-5
-1.348, -5.637e-5
-1.349, -5.625e-5
-1.350, -5.609e-5
-1.351, -5.609e-5
-1.352, -5.597e-5
-1.353, -5.597e-5
-1.354, -5.585e-5
-1.355, -5.573e-5
-1.356, -5.570e-5
-1.357, -5.564e-5
-1.358, -5.549e-5
-1.359, -5.542e-5
-1.360, -5.533e-5
-1.361, -5.527e-5
-1.362, -5.512e-5
-1.363, -5.506e-5
-1.364, -5.500e-5
-1.365, -5.497e-5
-1.366, -5.491e-5
-1.367, -5.485e-5
-1.368, -5.466e-5
-1.369, -5.454e-5
-1.370, -5.457e-5
-1.371, -5.442e-5
-1.372, -5.436e-5
-1.373, -5.427e-5
-1.374, -5.421e-5
-1.375, -5.415e-5
-1.376, -5.402e-5
-1.377, -5.399e-5
-1.378, -5.387e-5
-1.379, -5.372e-5
-1.380, -5.375e-5
-1.381, -5.378e-5
-1.382, -5.354e-5
-1.383, -5.344e-5
-1.384, -5.335e-5
-1.385, -5.341e-5
-1.386, -5.329e-5
-1.387, -5.317e-5
-1.388, -5.305e-5
-1.389, -5.305e-5
-1.390, -5.293e-5
-1.391, -5.284e-5
-1.392, -5.274e-5
-1.393, -5.274e-5
-1.394, -5.265e-5
-1.395, -5.244e-5
-1.396, -5.244e-5
-1.397, -5.244e-5
-1.398, -5.235e-5
-1.399, -5.226e-5
-1.400, -5.220e-5
-1.401, -5.207e-5
-1.402, -5.204e-5
-1.403, -5.192e-5
-1.404, -5.189e-5
-1.405, -5.183e-5
-1.406, -5.171e-5
-1.407, -5.168e-5
-1.408, -5.162e-5
-1.409, -5.159e-5
-1.410, -5.147e-5
-1.411, -5.140e-5
-1.412, -5.125e-5
-1.413, -5.122e-5
-1.414, -5.116e-5
-1.415, -5.107e-5
-1.416, -5.095e-5
-1.417, -5.095e-5
-1.418, -5.086e-5
-1.419, -5.070e-5
-1.420, -5.070e-5
-1.421, -5.058e-5
-1.422, -5.058e-5
-1.423, -5.052e-5
-1.424, -5.049e-5
-1.425, -5.034e-5
-1.426, -5.031e-5
-1.427, -5.019e-5
-1.428, -5.022e-5
-1.429, -5.009e-5
-1.430, -5.003e-5
-1.431, -4.991e-5
-1.432, -4.982e-5
-1.433, -4.967e-5
-1.434, -4.967e-5
-1.435, -4.958e-5
-1.436, -4.955e-5
-1.437, -4.949e-5
-1.438, -4.955e-5
-1.439, -4.942e-5
-1.440, -4.927e-5
-1.441, -4.927e-5
-1.442, -4.927e-5
-1.443, -4.918e-5
-1.444, -4.909e-5
-1.445, -4.900e-5
-1.446, -4.885e-5
-1.447, -4.891e-5
-1.448, -4.879e-5
-1.449, -4.872e-5
-1.450, -4.875e-5
-1.451, -4.866e-5
-1.452, -4.860e-5
-1.453, -4.854e-5
-1.454, -4.851e-5
-1.455, -4.839e-5
-1.456, -4.833e-5
-1.457, -4.827e-5
-1.458, -4.821e-5
-1.459, -4.827e-5
-1.460, -4.805e-5
-1.461, -4.805e-5
-1.462, -4.802e-5
-1.463, -4.796e-5
-1.464, -4.784e-5
-1.465, -4.781e-5
-1.466, -4.778e-5
-1.467, -4.769e-5
-1.468, -4.766e-5
-1.469, -4.754e-5
-1.470, -4.763e-5
-1.471, -4.751e-5
-1.472, -4.745e-5
-1.473, -4.735e-5
-1.474, -4.735e-5
-1.475, -4.720e-5
-1.476, -4.726e-5
-1.477, -4.717e-5
-1.478, -4.711e-5
-1.479, -4.699e-5
-1.480, -4.696e-5
-1.481, -4.687e-5
-1.482, -4.687e-5
-1.483, -4.681e-5
-1.484, -4.678e-5
-1.485, -4.674e-5
-1.486, -4.668e-5
-1.487, -4.665e-5
-1.488, -4.653e-5
-1.489, -4.647e-5
-1.490, -4.650e-5
-1.491, -4.641e-5
-1.492, -4.638e-5
-1.493, -4.626e-5
-1.494, -4.626e-5
-1.495, -4.617e-5
-1.496, -4.611e-5
-1.497, -4.601e-5
-1.498, -4.601e-5
-1.499, -4.598e-5
-1.500, -4.589e-5
-1.501, -4.592e-5
-1.502, -4.580e-5
-1.503, -4.583e-5
-1.504, -4.568e-5
-1.505, -4.577e-5
-1.506, -4.565e-5
-1.507, -4.562e-5
-1.508, -4.559e-5
-1.509, -4.550e-5
-1.510, -4.556e-5
-1.511, -4.544e-5
-1.512, -4.537e-5
-1.513, -4.525e-5
-1.514, -4.525e-5
-1.515, -4.525e-5
-1.516, -4.519e-5
-1.517, -4.516e-5
-1.518, -4.507e-5
-1.519, -4.516e-5
-1.520, -4.504e-5
-1.521, -4.501e-5
-1.522, -4.489e-5
-1.523, -4.480e-5
-1.524, -4.483e-5
-1.525, -4.483e-5
-1.526, -4.470e-5
-1.527, -4.470e-5
-1.528, -4.464e-5
-1.529, -4.461e-5
-1.530, -4.452e-5
-1.531, -4.452e-5
-1.532, -4.449e-5
-1.533, -4.449e-5
-1.534, -4.443e-5
-1.535, -4.443e-5
-1.536, -4.440e-5
-1.537, -4.425e-5
-1.538, -4.431e-5
-1.539, -4.431e-5
-1.540, -4.419e-5
-1.541, -4.413e-5
-1.542, -4.407e-5
-1.543, -4.413e-5
-1.544, -4.403e-5
-1.545, -4.394e-5
-1.546, -4.394e-5
-1.547, -4.388e-5
-1.548, -4.388e-5
-1.549, -4.388e-5
-1.550, -4.373e-5
-1.551, -4.379e-5
-1.552, -4.370e-5
-1.553, -4.367e-5
-1.554, -4.370e-5
-1.555, -4.361e-5
-1.556, -4.349e-5
-1.557, -4.352e-5
-1.558, -4.352e-5
-1.559, -4.349e-5
-1.560, -4.333e-5
-1.561, -4.346e-5
-1.562, -4.340e-5
-1.563, -4.336e-5
-1.564, -4.330e-5
-1.565, -4.324e-5
-1.566, -4.312e-5
-1.567, -4.321e-5
-1.568, -4.306e-5
-1.569, -4.306e-5
-1.570, -4.303e-5
-1.571, -4.303e-5
-1.572, -4.303e-5
-1.573, -4.297e-5
-1.574, -4.291e-5
-1.575, -4.282e-5
-1.576, -4.288e-5
-1.577, -4.276e-5
-1.578, -4.288e-5
-1.579, -4.276e-5
-1.580, -4.276e-5
-1.581, -4.266e-5
-1.582, -4.266e-5
-1.583, -4.266e-5
-1.584, -4.263e-5
-1.585, -4.251e-5
-1.586, -4.257e-5
-1.587, -4.254e-5
-1.588, -4.248e-5
-1.589, -4.242e-5
-1.590, -4.239e-5
-1.591, -4.242e-5
-1.592, -4.236e-5
-1.593, -4.233e-5
-1.594, -4.230e-5
-1.595, -4.218e-5
-1.596, -4.224e-5
-1.597, -4.218e-5
-1.598, -4.221e-5
-1.599, -4.221e-5
-1.600, -4.202e-5
-1.601, -4.209e-5
-1.602, -4.212e-5
-1.603, -4.202e-5
-1.604, -4.199e-5
-1.605, -4.202e-5
-1.606, -4.196e-5
-1.607, -4.199e-5
-1.608, -4.193e-5
-1.609, -4.193e-5
-1.610, -4.184e-5
-1.611, -4.181e-5
-1.612, -4.178e-5
-1.613, -4.187e-5
-1.614, -4.169e-5
-1.615, -4.175e-5
-1.616, -4.181e-5
-1.617, -4.169e-5
-1.618, -4.169e-5
-1.619, -4.166e-5
-1.620, -4.166e-5
-1.621, -4.166e-5
-1.622, -4.166e-5
-1.623, -4.148e-5
-1.624, -4.151e-5
-1.625, -4.142e-5
-1.626, -4.148e-5
-1.627, -4.135e-5
-1.628, -4.148e-5
-1.629, -4.139e-5
-1.630, -4.142e-5
-1.631, -4.145e-5
-1.632, -4.132e-5
-1.633, -4.135e-5
-1.634, -4.126e-5
-1.635, -4.117e-5
-1.636, -4.129e-5
-1.637, -4.126e-5
-1.638, -4.114e-5
-1.639, -4.120e-5
-1.640, -4.111e-5
-1.641, -4.108e-5
-1.642, -4.108e-5
-1.643, -4.099e-5
-1.644, -4.108e-5
-1.645, -4.102e-5
-1.646, -4.099e-5
-1.647, -4.099e-5
-1.648, -4.093e-5
-1.649, -4.090e-5
-1.650, -4.090e-5
-1.651, -4.090e-5
-1.652, -4.087e-5
-1.653, -4.087e-5
-1.654, -4.084e-5
-1.655, -4.084e-5
-1.656, -4.081e-5
-1.657, -4.075e-5
-1.658, -4.075e-5
-1.659, -4.072e-5
-1.660, -4.075e-5
-1.661, -4.078e-5
-1.662, -4.065e-5
-1.663, -4.062e-5
-1.664, -4.068e-5
-1.665, -4.068e-5
-1.666, -4.059e-5
-1.667, -4.059e-5
-1.668, -4.053e-5
-1.669, -4.059e-5
-1.670, -4.050e-5
-1.671, -4.053e-5
-1.672, -4.050e-5
-1.673, -4.050e-5
-1.674, -4.047e-5
-1.675, -4.044e-5
-1.676, -4.044e-5
-1.677, -4.035e-5
-1.678, -4.041e-5
-1.679, -4.041e-5
-1.680, -4.041e-5
-1.681, -4.026e-5
-1.682, -4.038e-5
-1.683, -4.029e-5
-1.684, -4.029e-5
-1.685, -4.038e-5
-1.686, -4.035e-5
-1.687, -4.029e-5
-1.688, -4.029e-5
-1.689, -4.029e-5
-1.690, -4.026e-5
-1.691, -4.017e-5
-1.692, -4.014e-5
-1.693, -4.020e-5
-1.694, -4.017e-5
-1.695, -4.008e-5
-1.696, -4.005e-5
-1.697, -4.011e-5
-1.698, -4.011e-5
-1.699, -4.005e-5
-1.700, -3.776e-5
-1.699, -3.706e-5
-1.698, -3.654e-5
-1.697, -3.612e-5
-1.696, -3.575e-5
-1.695, -3.551e-5
-1.694, -3.520e-5
-1.693, -3.499e-5
-1.692, -3.472e-5
-1.691, -3.450e-5
-1.690, -3.432e-5
-1.689, -3.408e-5
-1.688, -3.386e-5
-1.687, -3.371e-5
-1.686, -3.350e-5
-1.685, -3.338e-5
-1.684, -3.319e-5
-1.683, -3.307e-5
-1.682, -3.295e-5
-1.681, -3.271e-5
-1.680, -3.261e-5
-1.679, -3.258e-5
-1.678, -3.240e-5
-1.677, -3.234e-5
-1.676, -3.216e-5
-1.675, -3.207e-5
-1.674, -3.197e-5
-1.673, -3.182e-5
-1.672, -3.176e-5
-1.671, -3.161e-5
-1.670, -3.164e-5
-1.669, -3.155e-5
-1.668, -3.137e-5
-1.667, -3.131e-5
-1.666, -3.124e-5
-1.665, -3.115e-5
-1.664, -3.100e-5
-1.663, -3.106e-5
-1.662, -3.088e-5
-1.661, -3.085e-5
-1.660, -3.073e-5
-1.659, -3.067e-5
-1.658, -3.064e-5
-1.657, -3.054e-5
-1.656, -3.042e-5
-1.655, -3.039e-5
-1.654, -3.036e-5
-1.653, -3.030e-5
-1.652, -3.021e-5
-1.651, -3.018e-5
-1.650, -3.009e-5
-1.649, -3.006e-5
-1.648, -3.003e-5
-1.647, -2.993e-5
-1.646, -2.990e-5
-1.645, -2.987e-5
-1.644, -2.984e-5
-1.643, -2.975e-5
-1.642, -2.975e-5
-1.641, -2.969e-5
-1.640, -2.966e-5
-1.639, -2.969e-5
-1.638, -2.954e-5
-1.637, -2.951e-5
-1.636, -2.942e-5
-1.635, -2.942e-5
-1.634, -2.936e-5
-1.633, -2.930e-5
-1.632, -2.923e-5
-1.631, -2.914e-5
-1.630, -2.923e-5
-1.629, -2.920e-5
-1.628, -2.905e-5
-1.627, -2.899e-5
-1.626, -2.914e-5
-1.625, -2.902e-5
-1.624, -2.893e-5
-1.623, -2.890e-5
-1.622, -2.887e-5
-1.621, -2.884e-5
-1.620, -2.881e-5
-1.619, -2.869e-5
-1.618, -2.872e-5
-1.617, -2.866e-5
-1.616, -2.863e-5
-1.615, -2.866e-5
-1.614, -2.853e-5
-1.613, -2.841e-5
-1.612, -2.850e-5
-1.611, -2.841e-5
-1.610, -2.844e-5
-1.609, -2.841e-5
-1.608, -2.832e-5
-1.607, -2.829e-5
-1.606, -2.829e-5
-1.605, -2.823e-5
-1.604, -2.814e-5
-1.603, -2.814e-5
-1.602, -2.814e-5
-1.601, -2.811e-5
-1.600, -2.814e-5
-1.599, -2.799e-5
-1.598, -2.802e-5
-1.597, -2.796e-5
-1.596, -2.789e-5
-1.595, -2.786e-5
-1.594, -2.783e-5
-1.593, -2.786e-5
-1.592, -2.777e-5
-1.591, -2.780e-5
-1.590, -2.768e-5
-1.589, -2.768e-5
-1.588, -2.762e-5
-1.587, -2.759e-5
-1.586, -2.762e-5
-1.585, -2.759e-5
-1.584, -2.753e-5
-1.583, -2.756e-5
-1.582, -2.747e-5
-1.581, -2.750e-5
-1.580, -2.741e-5
-1.579, -2.735e-5
-1.578, -2.738e-5
-1.577, -2.738e-5
-1.576, -2.732e-5
-1.575, -2.732e-5
-1.574, -2.732e-5
-1.573, -2.725e-5
-1.572, -2.722e-5
-1.571, -2.722e-5
-1.570, -2.716e-5
-1.569, -2.713e-5
-1.568, -2.713e-5
-1.567, -2.713e-5
-1.566, -2.707e-5
-1.565, -2.698e-5
-1.564, -2.704e-5
-1.563, -2.707e-5
-1.562, -2.692e-5
-1.561, -2.686e-5
-1.560, -2.692e-5
-1.559, -2.692e-5
-1.558, -2.692e-5
-1.557, -2.689e-5
-1.556, -2.683e-5
-1.555, -2.671e-5
-1.554, -2.680e-5
-1.553, -2.680e-5
-1.552, -2.674e-5
-1.551, -2.668e-5
-1.550, -2.668e-5
-1.549, -2.674e-5
-1.548, -2.662e-5
-1.547, -2.655e-5
-1.546, -2.649e-5
-1.545, -2.658e-5
-1.544, -2.652e-5
-1.543, -2.658e-5
-1.542, -2.649e-5
-1.541, -2.652e-5
-1.540, -2.646e-5
-1.539, -2.643e-5
-1.538, -2.643e-5
-1.537, -2.634e-5
-1.536, -2.628e-5
-1.535, -2.634e-5
-1.534, -2.631e-5
-1.533, -2.634e-5
-1.532, -2.622e-5
-1.531, -2.622e-5
-1.530, -2.619e-5
-1.529, -2.619e-5
-1.528, -2.619e-5
-1.527, -2.619e-5
-1.526, -2.610e-5
-1.525, -2.604e-5
-1.524, -2.610e-5
-1.523, -2.607e-5
-1.522, -2.598e-5
-1.521, -2.601e-5
-1.520, -2.598e-5
-1.519, -2.591e-5
-1.518, -2.591e-5
-1.517, -2.591e-5
-1.516, -2.585e-5
-1.515, -2.579e-5
-1.514, -2.582e-5
-1.513, -2.576e-5
-1.512, -2.582e-5
-1.511, -2.567e-5
-1.510, -2.576e-5
-1.509, -2.567e-5
-1.508, -2.561e-5
-1.507, -2.567e-5
-1.506, -2.567e-5
-1.505, -2.564e-5
-1.504, -2.570e-5
-1.503, -2.555e-5
-1.502, -2.543e-5
-1.501, -2.555e-5
-1.500, -2.555e-5
-1.499, -2.549e-5
-1.498, -2.549e-5
-1.497, -2.537e-5
-1.496, -2.546e-5
-1.495, -2.546e-5
-1.494, -2.537e-5
-1.493, -2.534e-5
-1.492, -2.534e-5
-1.491, -2.537e-5
-1.490, -2.540e-5
-1.489, -2.531e-5
-1.488, -2.528e-5
-1.487, -2.528e-5
-1.486, -2.521e-5
-1.485, -2.528e-5
-1.484, -2.518e-5
-1.483, -2.521e-5
-1.482, -2.512e-5
-1.481, -2.515e-5
-1.480, -2.512e-5
-1.479, -2.509e-5
-1.478, -2.503e-5
-1.477, -2.503e-5
-1.476, -2.506e-5
-1.475, -2.503e-5
-1.474, -2.494e-5
-1.473, -2.491e-5
-1.472, -2.509e-5
-1.471, -2.494e-5
-1.470, -2.491e-5
-1.469, -2.485e-5
-1.468, -2.491e-5
-1.467, -2.488e-5
-1.466, -2.482e-5
-1.465, -2.476e-5
-1.464, -2.476e-5
-1.463, -2.473e-5
-1.462, -2.476e-5
-1.461, -2.476e-5
-1.460, -2.470e-5
-1.459, -2.470e-5
-1.458, -2.464e-5
-1.457, -2.464e-5
-1.456, -2.464e-5
-1.455, -2.457e-5
-1.454, -2.461e-5
-1.453, -2.457e-5
-1.452, -2.457e-5
-1.451, -2.451e-5
-1.450, -2.442e-5
-1.449, -2.442e-5
-1.448, -2.448e-5
-1.447, -2.451e-5
-1.446, -2.439e-5
-1.445, -2.436e-5
-1.444, -2.427e-5
-1.443, -2.430e-5
-1.442, -2.436e-5
-1.441, -2.430e-5
-1.440, -2.427e-5
-1.439, -2.424e-5
-1.438, -2.421e-5
-1.437, -2.430e-5
-1.436, -2.427e-5
-1.435, -2.418e-5
-1.434, -2.427e-5
-1.433, -2.421e-5
-1.432, -2.421e-5
-1.431, -2.415e-5
-1.430, -2.409e-5
-1.429, -2.415e-5
-1.428, -2.406e-5
-1.427, -2.406e-5
-1.426, -2.406e-5
-1.425, -2.397e-5
-1.424, -2.397e-5
-1.423, -2.400e-5
-1.422, -2.390e-5
-1.421, -2.400e-5
-1.420, -2.390e-5
-1.419, -2.384e-5
-1.418, -2.390e-5
-1.417, -2.390e-5
-1.416, -2.381e-5
-1.415, -2.384e-5
-1.414, -2.384e-5
-1.413, -2.381e-5
-1.412, -2.375e-5
-1.411, -2.369e-5
-1.410, -2.372e-5
-1.409, -2.363e-5
-1.408, -2.366e-5
-1.407, -2.372e-5
-1.406, -2.366e-5
-1.405, -2.360e-5
-1.404, -2.363e-5
-1.403, -2.366e-5
-1.402, -2.363e-5
-1.401, -2.351e-5
-1.400, -2.351e-5
-1.399, -2.360e-5
-1.398, -2.348e-5
-1.397, -2.351e-5
-1.396, -2.342e-5
-1.395, -2.348e-5
-1.394, -2.348e-5
-1.393, -2.342e-5
-1.392, -2.339e-5
-1.391, -2.336e-5
-1.390, -2.336e-5
-1.389, -2.333e-5
-1.388, -2.333e-5
-1.387, -2.333e-5
-1.386, -2.330e-5
-1.385, -2.323e-5
-1.384, -2.327e-5
-1.383, -2.323e-5
-1.382, -2.320e-5
-1.381, -2.317e-5
-1.380, -2.314e-5
-1.379, -2.314e-5
-1.378, -2.317e-5
-1.377, -2.308e-5
-1.376, -2.311e-5
-1.375, -2.317e-5
-1.374, -2.308e-5
-1.373, -2.299e-5
-1.372, -2.296e-5
-1.371, -2.302e-5
-1.370, -2.302e-5
-1.369, -2.290e-5
-1.368, -2.296e-5
-1.367, -2.290e-5
-1.366, -2.293e-5
-1.365, -2.284e-5
-1.364, -2.281e-5
-1.363, -2.278e-5
-1.362, -2.281e-5
-1.361, -2.278e-5
-1.360, -2.278e-5
-1.359, -2.272e-5
-1.358, -2.272e-5
-1.357, -2.266e-5
-1.356, -2.269e-5
-1.355, -2.269e-5
-1.354, -2.269e-5
-1.353, -2.263e-5
-1.352, -2.256e-5
-1.351, -2.266e-5
-1.350, -2.256e-5
-1.349, -2.253e-5
-1.348, -2.250e-5
-1.347, -2.247e-5
-1.346, -2.247e-5
-1.345, -2.247e-5
-1.344, -2.256e-5
-1.343, -2.244e-5
-1.342, -2.244e-5
-1.341, -2.238e-5
-1.340, -2.244e-5
-1.339, -2.238e-5
-1.338, -2.235e-5
-1.337, -2.232e-5
-1.336, -2.235e-5
-1.335, -2.229e-5
-1.334, -2.223e-5
-1.333, -2.232e-5
-1.332, -2.220e-5
-1.331, -2.226e-5
-1.330, -2.229e-5
-1.329, -2.220e-5
-1.328, -2.220e-5
-1.327, -2.217e-5
-1.326, -2.214e-5
-1.325, -2.214e-5
-1.324, -2.217e-5
-1.323, -2.199e-5
-1.322, -2.214e-5
-1.321, -2.208e-5
-1.320, -2.208e-5
-1.319, -2.202e-5
-1.318, -2.214e-5
-1.317, -2.199e-5
-1.316, -2.199e-5
-1.315, -2.193e-5
-1.314, -2.196e-5
-1.313, -2.193e-5
-1.312, -2.196e-5
-1.311, -2.189e-5
-1.310, -2.183e-5
-1.309, -2.183e-5
-1.308, -2.183e-5
-1.307, -2.180e-5
-1.306, -2.177e-5
-1.305, -2.171e-5
-1.304, -2.177e-5
-1.303, -2.165e-5
-1.302, -2.168e-5
-1.301, -2.171e-5
-1.300, -2.162e-5
-1.299, -2.156e-5
-1.298, -2.159e-5
-1.297, -2.162e-5
-1.296, -2.153e-5
-1.295, -2.153e-5
-1.294, -2.150e-5
-1.293, -2.153e-5
-1.292, -2.147e-5
-1.291, -2.144e-5
-1.290, -2.144e-5
-1.289, -2.144e-5
-1.288, -2.138e-5
-1.287, -2.138e-5
-1.286, -2.138e-5
-1.285, -2.138e-5
-1.284, -2.132e-5
-1.283, -2.132e-5
-1.282, -2.132e-5
-1.281, -2.122e-5
-1.280, -2.126e-5
-1.279, -2.122e-5
-1.278, -2.119e-5
-1.277, -2.116e-5
-1.276, -2.113e-5
-1.275, -2.107e-5
-1.274, -2.113e-5
-1.273, -2.104e-5
-1.272, -2.107e-5
-1.271, -2.107e-5
-1.270, -2.104e-5
-1.269, -2.101e-5
-1.268, -2.098e-5
-1.267, -2.098e-5
-1.266, -2.089e-5
-1.265, -2.092e-5
-1.264, -2.095e-5
-1.263, -2.089e-5
-1.262, -2.083e-5
-1.261, -2.077e-5
-1.260, -2.086e-5
-1.259, -2.077e-5
-1.258, -2.074e-5
-1.257, -2.071e-5
-1.256, -2.071e-5
-1.255, -2.068e-5
-1.254, -2.068e-5
-1.253, -2.068e-5
-1.252, -2.065e-5
-1.251, -2.055e-5
-1.250, -2.059e-5
-1.249, -2.059e-5
-1.248, -2.059e-5
-1.247, -2.049e-5
-1.246, -2.049e-5
-1.245, -2.049e-5
-1.244, -2.043e-5
-1.243, -2.049e-5
-1.242, -2.046e-5
-1.241, -2.043e-5
-1.240, -2.040e-5
-1.239, -2.037e-5
-1.238, -2.031e-5
-1.237, -2.034e-5
-1.236, -2.028e-5
-1.235, -2.022e-5
-1.234, -2.025e-5
-1.233, -2.022e-5
-1.232, -2.019e-5
-1.231, -2.019e-5
-1.230, -2.019e-5
-1.229, -2.028e-5
-1.228, -2.010e-5
-1.227, -2.007e-5
-1.226, -2.001e-5
-1.225, -2.004e-5
-1.224, -2.004e-5
-1.223, -1.995e-5
-1.222, -1.995e-5
-1.221, -1.988e-5
-1.220, -1.992e-5
-1.219, -1.985e-5
-1.218, -1.982e-5
-1.217, -1.979e-5
-1.216, -1.985e-5
-1.215, -1.973e-5
-1.214, -1.976e-5
-1.213, -1.973e-5
-1.212, -1.970e-5
-1.211, -1.967e-5
-1.210, -1.964e-5
-1.209, -1.961e-5
-1.208, -1.955e-5
-1.207, -1.949e-5
-1.206, -1.955e-5
-1.205, -1.952e-5
-1.204, -1.949e-5
-1.203, -1.943e-5
-1.202, -1.934e-5
-1.201, -1.934e-5
-1.200, -1.937e-5
-1.199, -1.934e-5
-1.198, -1.931e-5
-1.197, -1.921e-5
-1.196, -1.918e-5
-1.195, -1.921e-5
-1.194, -1.915e-5
-1.193, -1.909e-5
-1.192, -1.915e-5
-1.191, -1.912e-5
-1.190, -1.909e-5
-1.189, -1.903e-5
-1.188, -1.897e-5
-1.187, -1.894e-5
-1.186, -1.894e-5
-1.185, -1.888e-5
-1.184, -1.885e-5
-1.183, -1.888e-5
-1.182, -1.876e-5
-1.181, -1.876e-5
-1.180, -1.870e-5
-1.179, -1.867e-5
-1.178, -1.864e-5
-1.177, -1.858e-5
-1.176, -1.864e-5
-1.175, -1.854e-5
-1.174, -1.842e-5
-1.173, -1.842e-5
-1.172, -1.845e-5
-1.171, -1.836e-5
-1.170, -1.833e-5
-1.169, -1.824e-5
-1.168, -1.830e-5
-1.167, -1.821e-5
-1.166, -1.812e-5
-1.165, -1.815e-5
-1.164, -1.806e-5
-1.163, -1.803e-5
-1.162, -1.800e-5
-1.161, -1.787e-5
-1.160, -1.787e-5
-1.159, -1.784e-5
-1.158, -1.778e-5
-1.157, -1.775e-5
-1.156, -1.769e-5
-1.155, -1.760e-5
-1.154, -1.754e-5
-1.153, -1.754e-5
-1.152, -1.742e-5
-1.151, -1.742e-5
-1.150, -1.733e-5
-1.149, -1.724e-5
-1.148, -1.721e-5
-1.147, -1.714e-5
-1.146, -1.705e-5
-1.145, -1.702e-5
-1.144, -1.696e-5
-1.143, -1.693e-5
-1.142, -1.681e-5
-1.141, -1.672e-5
-1.140, -1.663e-5
-1.139, -1.660e-5
-1.138, -1.647e-5
-1.137, -1.638e-5
-1.136, -1.629e-5
-1.135, -1.623e-5
-1.134, -1.608e-5
-1.133, -1.611e-5
-1.132, -1.599e-5
-1.131, -1.599e-5
-1.130, -1.590e-5
-1.129, -1.571e-5
-1.128, -1.565e-5
-1.127, -1.550e-5
-1.126, -1.538e-5
-1.125, -1.529e-5
-1.124, -1.516e-5
-1.123, -1.510e-5
-1.122, -1.501e-5
-1.121, -1.483e-5
-1.120, -1.471e-5
-1.119, -1.462e-5
-1.118, -1.437e-5
-1.117, -1.437e-5
-1.116, -1.413e-5
-1.115, -1.407e-5
-1.114, -1.404e-5
-1.113, -1.379e-5
-1.112, -1.364e-5
-1.111, -1.349e-5
-1.110, -1.331e-5
-1.109, -1.309e-5
-1.108, -1.294e-5
-1.107, -1.279e-5
-1.106, -1.273e-5
-1.105, -1.236e-5
-1.104, -1.221e-5
-1.103, -1.212e-5
-1.102, -1.191e-5
-1.101, -1.148e-5
-1.100, -1.139e-5
-1.099, -1.130e-5
-1.098, -1.102e-5
-1.097, -1.081e-5
-1.096, -1.057e-5
-1.095, -1.047e-5
-1.094, -1.011e-5
-1.093, -9.927e-6
-1.092, -9.592e-6
-1.091, -9.409e-6
-1.090, -9.226e-6
-1.089, -8.922e-6
-1.088, -8.861e-6
-1.087, -8.495e-6
-1.086, -8.160e-6
-1.085, -7.856e-6
-1.084, -7.551e-6
-1.083, -7.369e-6
-1.082, -7.125e-6
-1.081, -6.699e-6
-1.080, -6.485e-6
-1.079, -6.181e-6
-1.078, -5.907e-6
-1.077, -5.511e-6
-1.076, -5.054e-6
-1.075, -5.176e-6
-1.074, -4.658e-6
-1.073, -4.201e-6
-1.072, -3.897e-6
-1.071, -3.653e-6
-1.070, -3.318e-6
-1.069, -2.922e-6
-1.068, -2.557e-6
-1.067, -2.283e-6
-1.066, -1.796e-6
-1.065, -1.582e-6
-1.064, -1.278e-6
-1.063, -8.515e-7
-1.062, -6.383e-7
-1.061, -1.206e-7
-1.060, 2.144e-7
-1.059, 4.276e-7
-1.058, 8.844e-7
-1.057, 1.402e-6
-1.056, 1.615e-6
-1.055, 1.950e-6
-1.054, 2.407e-6
-1.053, 2.803e-6
-1.052, 3.382e-6
-1.051, 3.534e-6
-1.050, 4.234e-6
-1.049, 4.630e-6
-1.048, 4.782e-6
-1.047, 5.239e-6
-1.046, 5.635e-6
-1.045, 6.061e-6
-1.044, 6.427e-6
-1.043, 6.823e-6
-1.042, 7.036e-6
-1.041, 7.736e-6
-1.040, 8.041e-6
-1.039, 8.406e-6
-1.038, 8.924e-6
-1.037, 9.046e-6
-1.036, 9.655e-6
-1.035, 1.032e-5
-1.034, 1.057e-5
-1.033, 1.127e-5
-1.032, 1.166e-5
-1.031, 1.206e-5
-1.030, 1.243e-5
-1.029, 1.291e-5
-1.028, 1.358e-5
-1.027, 1.392e-5
-1.026, 1.431e-5
-1.025, 1.501e-5
-1.024, 1.471e-5
-1.023, 1.581e-5
-1.022, 1.617e-5
-1.021, 1.675e-5
-1.020, 1.742e-5
-1.019, 1.794e-5
-1.018, 1.806e-5
-1.017, 1.897e-5
-1.016, 1.934e-5
-1.015, 2.004e-5
-1.014, 2.037e-5
-1.013, 2.101e-5
-1.012, 2.153e-5
-1.011, 2.199e-5
-1.010, 2.254e-5
-1.009, 2.336e-5
-1.008, 2.382e-5
-1.007, 2.424e-5
-1.006, 2.479e-5
-1.005, 2.546e-5
-1.004, 2.610e-5
-1.003, 2.680e-5
-1.002, 2.686e-5
-1.001, 2.787e-5
-1.000, 2.826e-5
-0.999, 2.924e-5
-0.998, 2.945e-5
-0.997, 3.018e-5
-0.996, 3.088e-5
-0.995, 3.125e-5
-0.994, 3.167e-5
-0.993, 3.234e-5
-0.992, 3.298e-5
-0.991, 3.356e-5
-0.990, 3.402e-5
-0.989, 3.460e-5
-0.988, 3.518e-5
-0.987, 3.575e-5
-0.986, 3.560e-5
-0.985, 3.648e-5
-0.984, 3.712e-5
-0.983, 3.767e-5
-0.982, 3.843e-5
-0.981, 3.859e-5
-0.980, 3.935e-5
-0.979, 3.974e-5
-0.978, 4.005e-5
-0.977, 4.063e-5
-0.976, 4.102e-5
-0.975, 4.172e-5
-0.974, 4.209e-5
-0.973, 4.227e-5
-0.972, 4.309e-5
-0.971, 4.328e-5
-0.970, 4.392e-5
-0.969, 4.413e-5
-0.968, 4.462e-5
-0.967, 4.498e-5
-0.966, 4.556e-5
-0.965, 4.580e-5
-0.964, 4.653e-5
-0.963, 4.678e-5
-0.962, 4.705e-5
-0.961, 4.757e-5
-0.960, 4.754e-5
-0.959, 4.812e-5
-0.958, 4.861e-5
-0.957, 4.882e-5
-0.956, 4.955e-5
-0.955, 4.976e-5
-0.954, 5.007e-5
-0.953, 5.052e-5
-0.952, 5.089e-5
-0.951, 5.125e-5
-0.950, 5.177e-5
-0.949, 5.180e-5
-0.948, 5.247e-5
-0.947, 5.308e-5
-0.946, 5.320e-5
-0.945, 5.348e-5
-0.944, 5.390e-5
-0.943, 5.436e-5
-0.942, 5.482e-5
-0.941, 5.497e-5
-0.940, 5.543e-5
-0.939, 5.588e-5
-0.938, 5.616e-5
-0.937, 5.646e-5
-0.936, 5.680e-5
-0.935, 5.738e-5
-0.934, 5.759e-5
-0.933, 5.783e-5
-0.932, 5.832e-5
-0.931, 5.865e-5
-0.930, 5.920e-5
-0.929, 5.926e-5
-0.928, 5.960e-5
-0.927, 6.003e-5
-0.926, 6.066e-5
-0.925, 6.066e-5
-0.924, 6.121e-5
-0.923, 6.143e-5
-0.922, 6.210e-5
-0.921, 6.210e-5
-0.920, 6.237e-5
-0.919, 6.277e-5
-0.918, 6.301e-5
-0.917, 6.316e-5
-0.916, 6.350e-5
-0.915, 6.365e-5
-0.914, 6.392e-5
-0.913, 6.417e-5
-0.912, 6.435e-5
-0.911, 6.456e-5
-0.910, 6.478e-5
-0.909, 6.456e-5
-0.908, 6.502e-5
-0.907, 6.505e-5
-0.906, 6.529e-5
-0.905, 6.532e-5
-0.904, 6.548e-5
-0.903, 6.560e-5
-0.902, 6.569e-5
-0.901, 6.563e-5
-0.900, 6.581e-5
-0.899, 6.587e-5
-0.898, 6.584e-5
-0.897, 6.584e-5
-0.896, 6.599e-5
-0.895, 6.584e-5
-0.894, 6.581e-5
-0.893, 6.563e-5
-0.892, 6.560e-5
-0.891, 6.554e-5
-0.890, 6.539e-5
-0.889, 6.520e-5
-0.888, 6.508e-5
-0.887, 6.496e-5
-0.886, 6.481e-5
-0.885, 6.459e-5
-0.884, 6.444e-5
-0.883, 6.408e-5
-0.882, 6.395e-5
-0.881, 6.380e-5
-0.880, 6.347e-5
-0.879, 6.331e-5
-0.878, 6.307e-5
-0.877, 6.289e-5
-0.876, 6.252e-5
-0.875, 6.225e-5
-0.874, 6.204e-5
-0.873, 6.185e-5
-0.872, 6.143e-5
-0.871, 6.115e-5
-0.870, 6.079e-5
-0.869, 6.051e-5
-0.868, 6.024e-5
-0.867, 5.990e-5
-0.866, 5.954e-5
-0.865, 5.926e-5
-0.864, 5.878e-5
-0.863, 5.853e-5
-0.862, 5.829e-5
-0.861, 5.789e-5
-0.860, 5.750e-5
-0.859, 5.719e-5
-0.858, 5.671e-5
-0.857, 5.655e-5
-0.856, 5.613e-5
-0.855, 5.576e-5
-0.854, 5.555e-5
-0.853, 5.518e-5
-0.852, 5.479e-5
-0.851, 5.442e-5
-0.850, 5.412e-5
-0.849, 5.384e-5
-0.848, 5.336e-5
-0.847, 5.302e-5
-0.846, 5.278e-5
-0.845, 5.250e-5
-0.844, 5.217e-5
-0.843, 5.171e-5
-0.842, 5.147e-5
-0.841, 5.110e-5
-0.840, 5.071e-5
-0.839, 5.040e-5
-0.838, 5.010e-5
-0.837, 4.979e-5
-0.836, 4.940e-5
-0.835, 4.909e-5
-0.834, 4.888e-5
-0.833, 4.864e-5
-0.832, 4.812e-5
-0.831, 4.784e-5
-0.830, 4.766e-5
-0.829, 4.730e-5
-0.828, 4.702e-5
-0.827, 4.675e-5
-0.826, 4.647e-5
-0.825, 4.611e-5
-0.824, 4.586e-5
-0.823, 4.565e-5
-0.822, 4.532e-5
-0.821, 4.507e-5
-0.820, 4.480e-5
-0.819, 4.443e-5
-0.818, 4.422e-5
-0.817, 4.401e-5
-0.816, 4.373e-5
-0.815, 4.346e-5
-0.814, 4.328e-5
-0.813, 4.303e-5
-0.812, 4.279e-5
-0.811, 4.245e-5
-0.810, 4.221e-5
-0.809, 4.209e-5
-0.808, 4.184e-5
-0.807, 4.151e-5
-0.806, 4.136e-5
-0.805, 4.111e-5
-0.804, 4.099e-5
-0.803, 4.069e-5
-0.802, 4.047e-5
-0.801, 4.032e-5
-0.800, 4.011e-5
-0.799, 3.990e-5
-0.798, 3.968e-5
-0.797, 3.947e-5
-0.796, 3.929e-5
-0.795, 3.904e-5
-0.794, 3.898e-5
-0.793, 3.877e-5
-0.792, 3.856e-5
-0.791, 3.831e-5
-0.790, 3.819e-5
-0.789, 3.801e-5
-0.788, 3.785e-5
-0.787, 3.758e-5
-0.786, 3.752e-5
-0.785, 3.737e-5
-0.784, 3.719e-5
-0.783, 3.700e-5
-0.782, 3.682e-5
-0.781, 3.658e-5
-0.780, 3.652e-5
-0.779, 3.636e-5
-0.778, 3.612e-5
-0.777, 3.609e-5
-0.776, 3.585e-5
-0.775, 3.578e-5
-0.774, 3.566e-5
-0.773, 3.554e-5
-0.772, 3.533e-5
-0.771, 3.521e-5
-0.770, 3.499e-5
-0.769, 3.493e-5
-0.768, 3.472e-5
-0.767, 3.463e-5
-0.766, 3.454e-5
-0.765, 3.438e-5
-0.764, 3.426e-5
-0.763, 3.414e-5
-0.762, 3.396e-5
-0.761, 3.393e-5
-0.760, 3.377e-5
-0.759, 3.359e-5
-0.758, 3.350e-5
-0.757, 3.344e-5
-0.756, 3.335e-5
-0.755, 3.320e-5
-0.754, 3.304e-5
-0.753, 3.295e-5
-0.752, 3.280e-5
-0.751, 3.274e-5
-0.750, 3.265e-5
-0.749, 3.253e-5
-0.748, 3.240e-5
-0.747, 3.234e-5
-0.746, 3.219e-5
-0.745, 3.210e-5
-0.744, 3.204e-5
-0.743, 3.192e-5
-0.742, 3.179e-5
-0.741, 3.170e-5
-0.740, 3.161e-5
-0.739, 3.152e-5
-0.738, 3.137e-5
-0.737, 3.131e-5
-0.736, 3.125e-5
-0.735, 3.116e-5
-0.734, 3.100e-5
-0.733, 3.094e-5
-0.732, 3.088e-5
-0.731, 3.079e-5
-0.730, 3.058e-5
-0.729, 3.061e-5
-0.728, 3.052e-5
-0.727, 3.045e-5
-0.726, 3.030e-5
-0.725, 3.027e-5
-0.724, 3.018e-5
-0.723, 3.012e-5
-0.722, 3.003e-5
-0.721, 2.997e-5
-0.720, 2.988e-5
-0.719, 2.982e-5
-0.718, 2.972e-5
-0.717, 2.972e-5
-0.716, 2.960e-5
-0.715, 2.951e-5
-0.714, 2.939e-5
-0.713, 2.936e-5
-0.712, 2.930e-5
-0.711, 2.924e-5
-0.710, 2.911e-5
-0.709, 2.911e-5
-0.708, 2.905e-5
-0.707, 2.896e-5
-0.706, 2.884e-5
-0.705, 2.881e-5
-0.704, 2.872e-5
-0.703, 2.869e-5
-0.702, 2.869e-5
-0.701, 2.857e-5
-0.700, 2.851e-5
-0.699, 2.848e-5
-0.698, 2.838e-5
-0.697, 2.832e-5
-0.696, 2.832e-5
-0.695, 2.817e-5
-0.694, 2.820e-5
-0.693, 2.805e-5
-0.692, 2.805e-5
-0.691, 2.799e-5
-0.690, 2.796e-5
-0.689, 2.787e-5
-0.688, 2.781e-5
-0.687, 2.771e-5
-0.686, 2.768e-5
-0.685, 2.759e-5
-0.684, 2.762e-5
-0.683, 2.756e-5
-0.682, 2.747e-5
-0.681, 2.741e-5
-0.680, 2.738e-5
-0.679, 2.732e-5
-0.678, 2.726e-5
-0.677, 2.723e-5
-0.676, 2.717e-5
-0.675, 2.714e-5
-0.674, 2.710e-5
-0.673, 2.701e-5
-0.672, 2.698e-5
-0.671, 2.689e-5
-0.670, 2.695e-5
-0.669, 2.686e-5
-0.668, 2.683e-5
-0.667, 2.671e-5
-0.666, 2.671e-5
-0.665, 2.668e-5
-0.664, 2.656e-5
-0.663, 2.653e-5
-0.662, 2.650e-5
-0.661, 2.650e-5
-0.660, 2.643e-5
-0.659, 2.637e-5
-0.658, 2.631e-5
-0.657, 2.628e-5
-0.656, 2.619e-5
-0.655, 2.619e-5
-0.654, 2.619e-5
-0.653, 2.598e-5
-0.652, 2.607e-5
-0.651, 2.601e-5
-0.650, 2.601e-5
-0.649, 2.589e-5
-0.648, 2.589e-5
-0.647, 2.589e-5
-0.646, 2.583e-5
-0.645, 2.570e-5
-0.644, 2.570e-5
-0.643, 2.564e-5
-0.642, 2.567e-5
-0.641, 2.561e-5
-0.640, 2.567e-5
-0.639, 2.555e-5
-0.638, 2.549e-5
-0.637, 2.543e-5
-0.636, 2.543e-5
-0.635, 2.540e-5
-0.634, 2.534e-5
-0.633, 2.528e-5
-0.632, 2.525e-5
-0.631, 2.528e-5
-0.630, 2.519e-5
-0.629, 2.513e-5
-0.628, 2.516e-5
-0.627, 2.506e-5
-0.626, 2.509e-5
-0.625, 2.500e-5
-0.624, 2.500e-5
-0.623, 2.497e-5
-0.622, 2.500e-5
-0.621, 2.488e-5
-0.620, 2.485e-5
-0.619, 2.485e-5
-0.618, 2.479e-5
-0.617, 2.482e-5
-0.616, 2.476e-5
-0.615, 2.464e-5
-0.614, 2.461e-5
-0.613, 2.467e-5
-0.612, 2.458e-5
-0.611, 2.461e-5
-0.610, 2.452e-5
-0.609, 2.455e-5
-0.608, 2.446e-5
-0.607, 2.446e-5
-0.606, 2.449e-5
-0.605, 2.436e-5
-0.604, 2.436e-5
-0.603, 2.433e-5
-0.602, 2.427e-5
-0.601, 2.427e-5
-0.600, 2.421e-5
-0.599, 2.424e-5
-0.598, 2.421e-5
-0.597, 2.415e-5
-0.596, 2.412e-5
-0.595, 2.406e-5
-0.594, 2.409e-5
-0.593, 2.406e-5
-0.592, 2.403e-5
-0.591, 2.400e-5
-0.590, 2.397e-5
-0.589, 2.397e-5
-0.588, 2.391e-5
-0.587, 2.388e-5
-0.586, 2.385e-5
-0.585, 2.385e-5
-0.584, 2.379e-5
-0.583, 2.376e-5
-0.582, 2.369e-5
-0.581, 2.366e-5
-0.580, 2.369e-5
-0.579, 2.366e-5
-0.578, 2.363e-5
-0.577, 2.357e-5
-0.576, 2.348e-5
-0.575, 2.351e-5
-0.574, 2.354e-5
-0.573, 2.348e-5
-0.572, 2.336e-5
-0.571, 2.339e-5
-0.570, 2.342e-5
-0.569, 2.342e-5
-0.568, 2.333e-5
-0.567, 2.333e-5
-0.566, 2.333e-5
-0.565, 2.333e-5
-0.564, 2.321e-5
-0.563, 2.321e-5
-0.562, 2.324e-5
-0.561, 2.321e-5
-0.560, 2.315e-5
-0.559, 2.312e-5
-0.558, 2.312e-5
-0.557, 2.305e-5
-0.556, 2.305e-5
-0.555, 2.302e-5
-0.554, 2.302e-5
-0.553, 2.302e-5
-0.552, 2.296e-5
-0.551, 2.290e-5
-0.550, 2.290e-5
-0.549, 2.290e-5
-0.548, 2.281e-5
-0.547, 2.287e-5
-0.546, 2.284e-5
-0.545, 2.284e-5
-0.544, 2.275e-5
-0.543, 2.275e-5
-0.542, 2.278e-5
-0.541, 2.278e-5
-0.540, 2.269e-5
-0.539, 2.269e-5
-0.538, 2.275e-5
-0.537, 2.272e-5
-0.536, 2.266e-5
-0.535, 2.257e-5
-0.534, 2.263e-5
-0.533, 2.254e-5
-0.532, 2.260e-5
-0.531, 2.257e-5
-0.530, 2.254e-5
-0.529, 2.254e-5
-0.528, 2.248e-5
-0.527, 2.245e-5
-0.526, 2.254e-5
-0.525, 2.235e-5
-0.524, 2.238e-5
-0.523, 2.238e-5
-0.522, 2.238e-5
-0.521, 2.238e-5
-0.520, 2.232e-5
-0.519, 2.229e-5
-0.518, 2.232e-5
-0.517, 2.232e-5
-0.516, 2.226e-5
-0.515, 2.223e-5
-0.514, 2.220e-5
-0.513, 2.226e-5
-0.512, 2.229e-5
-0.511, 2.217e-5
-0.510, 2.214e-5
-0.509, 2.214e-5
-0.508, 2.214e-5
-0.507, 2.211e-5
-0.506, 2.205e-5
-0.505, 2.205e-5
-0.504, 2.205e-5
-0.503, 2.199e-5
-0.502, 2.199e-5
-0.501, 2.199e-5
-0.500, 2.196e-5
-0.499, 2.193e-5
-0.498, 2.187e-5
-0.497, 2.193e-5
-0.496, 2.187e-5
-0.495, 2.181e-5
-0.494, 2.187e-5
-0.493, 2.187e-5
-0.492, 2.184e-5
-0.491, 2.178e-5
-0.490, 2.178e-5
-0.489, 2.178e-5
-0.488, 2.175e-5
-0.487, 2.175e-5
-0.486, 2.171e-5
-0.485, 2.168e-5
-0.484, 2.175e-5
-0.483, 2.159e-5
-0.482, 2.165e-5
-0.481, 2.162e-5
-0.480, 2.162e-5
-0.479, 2.156e-5
-0.478, 2.156e-5
-0.477, 2.156e-5
-0.476, 2.156e-5
-0.475, 2.150e-5
-0.474, 2.144e-5
-0.473, 2.147e-5
-0.472, 2.147e-5
-0.471, 2.147e-5
-0.470, 2.144e-5
-0.469, 2.144e-5
-0.468, 2.141e-5
-0.467, 2.138e-5
-0.466, 2.141e-5
-0.465, 2.141e-5
-0.464, 2.138e-5
-0.463, 2.129e-5
-0.462, 2.132e-5
-0.461, 2.132e-5
-0.460, 2.135e-5
-0.459, 2.129e-5
-0.458, 2.126e-5
-0.457, 2.129e-5
-0.456, 2.132e-5
-0.455, 2.123e-5
-0.454, 2.123e-5
-0.453, 2.123e-5
-0.452, 2.123e-5
-0.451, 2.120e-5
-0.450, 2.114e-5
-0.449, 2.117e-5
-0.448, 2.104e-5
-0.447, 2.114e-5
-0.446, 2.114e-5
-0.445, 2.108e-5
-0.444, 2.108e-5
-0.443, 2.111e-5
-0.442, 2.101e-5
-0.441, 2.108e-5
-0.440, 2.098e-5
-0.439, 2.098e-5
-0.438, 2.095e-5
-0.437, 2.101e-5
-0.436, 2.098e-5
-0.435, 2.098e-5
-0.434, 2.092e-5
-0.433, 2.095e-5
-0.432, 2.092e-5
-0.431, 2.092e-5
-0.430, 2.086e-5
-0.429, 2.083e-5
-0.428, 2.086e-5
-0.427, 2.083e-5
-0.426, 2.080e-5
-0.425, 2.083e-5
-0.424, 2.080e-5
-0.423, 2.074e-5
-0.422, 2.077e-5
-0.421, 2.071e-5
-0.420, 2.071e-5
-0.419, 2.071e-5
-0.418, 2.071e-5
-0.417, 2.068e-5
-0.416, 2.065e-5
-0.415, 2.065e-5
-0.414, 2.065e-5
-0.413, 2.065e-5
-0.412, 2.065e-5
-0.411, 2.059e-5
-0.410, 2.031e-5
-0.409, 2.047e-5
-0.408, 2.056e-5
-0.407, 2.056e-5
-0.406, 2.047e-5
-0.405, 2.047e-5
-0.404, 2.050e-5
-0.403, 2.047e-5
-0.402, 2.037e-5
-0.401, 2.044e-5
-0.400, 2.044e-5
-0.399, 2.044e-5
-0.398, 2.037e-5
-0.397, 2.028e-5
-0.396, 2.037e-5
-0.395, 2.031e-5
-0.394, 2.031e-5
-0.393, 2.031e-5
-0.392, 2.028e-5
-0.391, 2.031e-5
-0.390, 2.028e-5
-0.389, 2.025e-5
-0.388, 2.025e-5
-0.387, 2.022e-5
-0.386, 2.019e-5
-0.385, 2.022e-5
-0.384, 2.031e-5
-0.383, 2.016e-5
-0.382, 2.016e-5
-0.381, 2.019e-5
-0.380, 2.016e-5
-0.379, 2.019e-5
-0.378, 2.007e-5
-0.377, 2.013e-5
-0.376, 2.013e-5
-0.375, 2.007e-5
-0.374, 2.004e-5
-0.373, 2.004e-5
-0.372, 2.007e-5
-0.371, 2.004e-5
-0.370, 2.001e-5
-0.369, 2.004e-5
-0.368, 2.001e-5
-0.367, 2.001e-5
-0.366, 1.998e-5
-0.365, 1.989e-5
-0.364, 2.001e-5
-0.363, 1.995e-5
-0.362, 1.995e-5
-0.361, 1.992e-5
-0.360, 1.995e-5
-0.359, 1.989e-5
-0.358, 1.992e-5
-0.357, 1.986e-5
-0.356, 1.992e-5
-0.355, 1.983e-5
-0.354, 1.986e-5
-0.353, 1.980e-5
-0.352, 1.980e-5
-0.351, 1.980e-5
-0.350, 1.977e-5
-0.349, 1.974e-5
-0.348, 1.980e-5
-0.347, 1.977e-5
-0.346, 1.964e-5
-0.345, 1.970e-5
-0.344, 1.970e-5
-0.343, 1.977e-5
-0.342, 1.970e-5
-0.341, 1.974e-5
-0.340, 1.974e-5
-0.339, 1.970e-5
-0.338, 1.970e-5
-0.337, 1.967e-5
-0.336, 1.964e-5
-0.335, 1.961e-5
-0.334, 1.964e-5
-0.333, 1.974e-5
-0.332, 1.964e-5
-0.331, 1.955e-5
-0.330, 1.958e-5
-0.329, 1.961e-5
-0.328, 1.955e-5
-0.327, 1.952e-5
-0.326, 1.958e-5
-0.325, 1.952e-5
-0.324, 1.952e-5
-0.323, 1.952e-5
-0.322, 1.949e-5
-0.321, 1.949e-5
-0.320, 1.937e-5
-0.319, 1.949e-5
-0.318, 1.946e-5
-0.317, 1.940e-5
-0.316, 1.946e-5
-0.315, 1.946e-5
-0.314, 1.943e-5
-0.313, 1.934e-5
-0.312, 1.934e-5
-0.311, 1.943e-5
-0.310, 1.937e-5
-0.309, 1.931e-5
-0.308, 1.940e-5
-0.307, 1.940e-5
-0.306, 1.937e-5
-0.305, 1.931e-5
-0.304, 1.931e-5
-0.303, 1.928e-5
-0.302, 1.934e-5
-0.301, 1.925e-5
-0.300, 1.925e-5
-0.299, 1.928e-5
-0.298, 1.928e-5
-0.297, 1.931e-5
-0.296, 1.925e-5
-0.295, 1.916e-5
-0.294, 1.925e-5
-0.293, 1.916e-5
-0.292, 1.922e-5
-0.291, 1.922e-5
-0.290, 1.922e-5
-0.289, 1.919e-5
-0.288, 1.916e-5
-0.287, 1.916e-5
-0.286, 1.922e-5
-0.285, 1.913e-5
-0.284, 1.919e-5
-0.283, 1.919e-5
-0.282, 1.931e-5
-0.281, 1.916e-5
-0.280, 1.913e-5
-0.279, 1.919e-5
-0.278, 1.922e-5
-0.277, 1.913e-5
-0.276, 1.913e-5
-0.275, 1.913e-5
-0.274, 1.913e-5
-0.273, 1.913e-5
-0.272, 1.910e-5
-0.271, 1.907e-5
-0.270, 1.907e-5
-0.269, 1.897e-5
-0.268, 1.907e-5
-0.267, 1.907e-5
-0.266, 1.907e-5
-0.265, 1.907e-5
-0.264, 1.903e-5
-0.263, 1.907e-5
-0.262, 1.903e-5
-0.261, 1.903e-5
-0.260, 1.900e-5
-0.259, 1.903e-5
-0.258, 1.900e-5
-0.257, 1.903e-5
-0.256, 1.897e-5
-0.255, 1.900e-5
-0.254, 1.900e-5
-0.253, 1.894e-5
-0.252, 1.897e-5
-0.251, 1.903e-5
-0.250, 1.894e-5
-0.249, 1.897e-5
-0.248, 1.891e-5
-0.247, 1.894e-5
-0.246, 1.897e-5
-0.245, 1.897e-5
-0.244, 1.891e-5
-0.243, 1.888e-5
-0.242, 1.891e-5
-0.241, 1.888e-5
-0.240, 1.888e-5
-0.239, 1.888e-5
-0.238, 1.888e-5
-0.237, 1.891e-5
-0.236, 1.888e-5
-0.235, 1.885e-5
-0.234, 1.885e-5
-0.233, 1.888e-5
-0.232, 1.885e-5
-0.231, 1.888e-5
-0.230, 1.885e-5
-0.229, 1.885e-5
-0.228, 1.882e-5
-0.227, 1.876e-5
-0.226, 1.879e-5
-0.225, 1.882e-5
-0.224, 1.873e-5
-0.223, 1.873e-5
-0.222, 1.876e-5
-0.221, 1.876e-5
-0.220, 1.873e-5
-0.219, 1.873e-5
-0.218, 1.867e-5
-0.217, 1.879e-5
-0.216, 1.864e-5
-0.215, 1.864e-5
-0.214, 1.867e-5
-0.213, 1.873e-5
-0.212, 1.867e-5
-0.211, 1.864e-5
-0.210, 1.867e-5
-0.209, 1.870e-5
-0.208, 1.861e-5
-0.207, 1.861e-5
-0.206, 1.864e-5
-0.205, 1.843e-5
-0.204, 1.864e-5
-0.203, 1.864e-5
-0.202, 1.861e-5
-0.201, 1.861e-5
-0.200, 1.855e-5
-0.199, 1.855e-5
-0.198, 1.858e-5
-0.197, 1.861e-5
-0.196, 1.855e-5
-0.195, 1.852e-5
-0.194, 1.852e-5
-0.193, 1.858e-5
-0.192, 1.840e-5
-0.191, 1.849e-5
-0.190, 1.852e-5
-0.189, 1.852e-5
-0.188, 1.849e-5
-0.187, 1.849e-5
-0.186, 1.855e-5
-0.185, 1.852e-5
-0.184, 1.846e-5
-0.183, 1.843e-5
-0.182, 1.852e-5
-0.181, 1.843e-5
-0.180, 1.843e-5
-0.179, 1.843e-5
-0.178, 1.849e-5
-0.177, 1.843e-5
-0.176, 1.843e-5
-0.175, 1.843e-5
-0.174, 1.849e-5
-0.173, 1.843e-5
-0.172, 1.840e-5
-0.171, 1.836e-5
-0.170, 1.843e-5
-0.169, 1.843e-5
-0.168, 1.833e-5
-0.167, 1.830e-5
-0.166, 1.840e-5
-0.165, 1.836e-5
-0.164, 1.836e-5
-0.163, 1.833e-5
-0.162, 1.833e-5
-0.161, 1.836e-5
-0.160, 1.833e-5
-0.159, 1.830e-5
-0.158, 1.836e-5
-0.157, 1.836e-5
-0.156, 1.833e-5
-0.155, 1.830e-5
-0.154, 1.827e-5
-0.153, 1.827e-5
-0.152, 1.824e-5
-0.151, 1.824e-5
-0.150, 1.830e-5
-0.149, 1.824e-5
-0.148, 1.830e-5
-0.147, 1.827e-5
-0.146, 1.824e-5
-0.145, 1.824e-5
-0.144, 1.824e-5
-0.143, 1.821e-5
-0.142, 1.824e-5
-0.141, 1.815e-5
-0.140, 1.821e-5
-0.139, 1.818e-5
-0.138, 1.821e-5
-0.137, 1.827e-5
-0.136, 1.818e-5
-0.135, 1.815e-5
-0.134, 1.818e-5
-0.133, 1.818e-5
-0.132, 1.824e-5
-0.131, 1.812e-5
-0.130, 1.815e-5
-0.129, 1.818e-5
-0.128, 1.824e-5
-0.127, 1.812e-5
-0.126, 1.815e-5
-0.125, 1.818e-5
-0.124, 1.821e-5
-0.123, 1.809e-5
-0.122, 1.809e-5
-0.121, 1.815e-5
-0.120, 1.812e-5
-0.119, 1.815e-5
-0.118, 1.815e-5
-0.117, 1.809e-5
-0.116, 1.812e-5
-0.115, 1.806e-5
-0.114, 1.809e-5
-0.113, 1.809e-5
-0.112, 1.809e-5
-0.111, 1.803e-5
-0.110, 1.812e-5
-0.109, 1.809e-5
-0.108, 1.812e-5
-0.107, 1.803e-5
-0.106, 1.806e-5
-0.105, 1.812e-5
-0.104, 1.815e-5
-0.103, 1.812e-5
-0.102, 1.806e-5
-0.101, 1.815e-5
-0.100, 1.812e-5
-0.099, 1.809e-5
-0.098, 1.809e-5
-0.097, 1.812e-5
-0.096, 1.809e-5
-0.095, 1.806e-5
-0.094, 1.803e-5
-0.093, 1.812e-5
-0.092, 1.809e-5
-0.091, 1.806e-5
-0.090, 1.800e-5
-0.089, 1.809e-5
-0.088, 1.806e-5
-0.087, 1.809e-5
-0.086, 1.806e-5
-0.085, 1.815e-5
-0.084, 1.809e-5
-0.083, 1.809e-5
-0.082, 1.806e-5
-0.081, 1.809e-5
-0.080, 1.803e-5
-0.079, 1.809e-5
-0.078, 1.806e-5
-0.077, 1.824e-5
-0.076, 1.812e-5
-0.075, 1.806e-5
-0.074, 1.806e-5
-0.073, 1.812e-5
-0.072, 1.809e-5
-0.071, 1.809e-5
-0.070, 1.803e-5
-0.069, 1.812e-5
-0.068, 1.809e-5
-0.067, 1.812e-5
-0.066, 1.809e-5
-0.065, 1.812e-5
-0.064, 1.800e-5
-0.063, 1.812e-5
-0.062, 1.815e-5
-0.061, 1.812e-5
-0.060, 1.815e-5
-0.059, 1.815e-5
-0.058, 1.812e-5
-0.057, 1.812e-5
-0.056, 1.806e-5
-0.055, 1.809e-5
-0.054, 1.812e-5
-0.053, 1.812e-5
-0.052, 1.815e-5
-0.051, 1.812e-5
-0.050, 1.806e-5
-0.049, 1.815e-5
-0.048, 1.818e-5
-0.047, 1.815e-5
-0.046, 1.806e-5
-0.045, 1.815e-5
-0.044, 1.815e-5
-0.043, 1.818e-5
-0.042, 1.815e-5
-0.041, 1.821e-5
-0.040, 1.815e-5
-0.039, 1.812e-5
-0.038, 1.812e-5
-0.037, 1.815e-5
-0.036, 1.818e-5
-0.035, 1.818e-5
-0.034, 1.815e-5
-0.033, 1.818e-5
-0.032, 1.821e-5
-0.031, 1.821e-5
-0.030, 1.818e-5
-0.029, 1.821e-5
-0.028, 1.821e-5
-0.027, 1.824e-5
-0.026, 1.830e-5
-0.025, 1.827e-5
-0.024, 1.821e-5
-0.023, 1.824e-5
-0.022, 1.824e-5
-0.021, 1.824e-5
-0.020, 1.830e-5
-0.019, 1.830e-5
-0.018, 1.824e-5
-0.017, 1.830e-5
-0.016, 1.833e-5
-0.015, 1.833e-5
-0.014, 1.830e-5
-0.013, 1.827e-5
-0.012, 1.840e-5
-0.011, 1.836e-5
-0.010, 1.833e-5
-0.009, 1.836e-5
-0.008, 1.836e-5
-0.007, 1.840e-5
-0.006, 1.843e-5
-0.005, 1.840e-5
-0.004, 1.846e-5
-0.003, 1.843e-5
-0.002, 1.843e-5
-0.001, 1.843e-5
-0.000, 1.818e-5
0.001, 1.840e-5
0.002, 1.846e-5
0.003, 1.846e-5
0.004, 1.849e-5
0.005, 1.849e-5
0.006, 1.846e-5
0.007, 1.846e-5
0.008, 1.855e-5
0.009, 1.855e-5
0.010, 1.855e-5
0.011, 1.849e-5
0.012, 1.858e-5
0.013, 1.858e-5
0.014, 1.858e-5
0.015, 1.861e-5
0.016, 1.861e-5
0.017, 1.861e-5
0.018, 1.867e-5
0.019, 1.864e-5
0.020, 1.867e-5
0.021, 1.867e-5
0.022, 1.870e-5
0.023, 1.867e-5
0.024, 1.867e-5
0.025, 1.873e-5
0.026, 1.879e-5
0.027, 1.876e-5
0.028, 1.876e-5
0.029, 1.873e-5
0.030, 1.873e-5
0.031, 1.876e-5
0.032, 1.876e-5
0.033, 1.882e-5
0.034, 1.882e-5
0.035, 1.882e-5
0.036, 1.888e-5
0.037, 1.888e-5
0.038, 1.876e-5
0.039, 1.885e-5
0.040, 1.891e-5
0.041, 1.894e-5
0.042, 1.894e-5
0.043, 1.891e-5
0.044, 1.897e-5
0.045, 1.897e-5
0.046, 1.903e-5
0.047, 1.894e-5
0.048, 1.897e-5
0.049, 1.900e-5
0.050, 1.913e-5
0.051, 1.903e-5
0.052, 1.907e-5
0.053, 1.907e-5
0.054, 1.910e-5
0.055, 1.910e-5
0.056, 1.913e-5
0.057, 1.913e-5
0.058, 1.922e-5
0.059, 1.919e-5
0.060, 1.922e-5
0.061, 1.925e-5
0.062, 1.925e-5
0.063, 1.928e-5
0.064, 1.913e-5
0.065, 1.931e-5
0.066, 1.934e-5
0.067, 1.931e-5
0.068, 1.940e-5
0.069, 1.940e-5
0.070, 1.940e-5
0.071, 1.937e-5
0.072, 1.943e-5
0.073, 1.946e-5
0.074, 1.955e-5
0.075, 1.946e-5
0.076, 1.952e-5
0.077, 1.958e-5
0.078, 1.958e-5
0.079, 1.958e-5
0.080, 1.958e-5
0.081, 1.967e-5
0.082, 1.970e-5
0.083, 1.964e-5
0.084, 1.964e-5
0.085, 1.974e-5
0.086, 1.970e-5
0.087, 1.980e-5
0.088, 1.974e-5
0.089, 1.977e-5
0.090, 1.980e-5
0.091, 1.980e-5
0.092, 1.983e-5
0.093, 1.995e-5
0.094, 1.989e-5
0.095, 1.989e-5
0.096, 1.989e-5
0.097, 1.995e-5
0.098, 1.992e-5
0.099, 1.998e-5
0.100, 2.001e-5
0.101, 2.007e-5
0.102, 2.013e-5
0.103, 2.007e-5
0.104, 2.010e-5
0.105, 2.010e-5
0.106, 2.013e-5
0.107, 2.022e-5
0.108, 2.016e-5
0.109, 2.022e-5
0.110, 2.019e-5
0.111, 2.025e-5
0.112, 2.028e-5
0.113, 2.025e-5
0.114, 2.028e-5
0.115, 2.022e-5
0.116, 2.034e-5
0.117, 2.034e-5
0.118, 2.034e-5
0.119, 2.041e-5
0.120, 2.041e-5
0.121, 2.031e-5
0.122, 2.044e-5
0.123, 2.041e-5
0.124, 2.047e-5
0.125, 2.047e-5
0.126, 2.053e-5
0.127, 2.053e-5
0.128, 2.059e-5
0.129, 2.053e-5
0.130, 2.059e-5
0.131, 2.059e-5
0.132, 2.056e-5
0.133, 2.059e-5
0.134, 2.062e-5
0.135, 2.071e-5
0.136, 2.059e-5
0.137, 2.059e-5
0.138, 2.065e-5
0.139, 2.071e-5
0.140, 2.068e-5
0.141, 2.068e-5
0.142, 2.065e-5
0.143, 2.071e-5
0.144, 2.071e-5
0.145, 2.068e-5
0.146, 2.074e-5
0.147, 2.077e-5
0.148, 2.074e-5
0.149, 2.077e-5
0.150, 2.080e-5
0.151, 2.086e-5
0.152, 2.080e-5
0.153, 2.077e-5
0.154, 2.086e-5
0.155, 2.089e-5
0.156, 2.080e-5
0.157, 2.086e-5
0.158, 2.089e-5
0.159, 2.098e-5
0.160, 2.086e-5
0.161, 2.086e-5
0.162, 2.095e-5
0.163, 2.095e-5
0.164, 2.095e-5
0.165, 2.095e-5
0.166, 2.089e-5
0.167, 2.095e-5
0.168, 2.098e-5
0.169, 2.092e-5
0.170, 2.098e-5
0.171, 2.095e-5
0.172, 2.098e-5
0.173, 2.098e-5
0.174, 2.101e-5
0.175, 2.098e-5
0.176, 2.101e-5
0.177, 2.098e-5
0.178, 2.104e-5
0.179, 2.104e-5
0.180, 2.104e-5
0.181, 2.101e-5
0.182, 2.111e-5
0.183, 2.104e-5
0.184, 2.098e-5
0.185, 2.098e-5
0.186, 2.104e-5
0.187, 2.104e-5
0.188, 2.104e-5
0.189, 2.098e-5
0.190, 2.101e-5
0.191, 2.108e-5
0.192, 2.095e-5
0.193, 2.101e-5
0.194, 2.101e-5
0.195, 2.098e-5
0.196, 2.101e-5
0.197, 2.101e-5
0.198, 2.098e-5
0.199, 2.098e-5
0.200, 2.098e-5
0.201, 2.098e-5
0.202, 2.098e-5
0.203, 2.098e-5
0.204, 2.101e-5
0.205, 2.098e-5
0.206, 2.089e-5
0.207, 2.098e-5
0.208, 2.089e-5
0.209, 2.089e-5
0.210, 2.092e-5
0.211, 2.095e-5
0.212, 2.098e-5
0.213, 2.089e-5
0.214, 2.086e-5
0.215, 2.092e-5
0.216, 2.092e-5
0.217, 2.071e-5
0.218, 2.083e-5
0.219, 2.086e-5
0.220, 2.092e-5
0.221, 2.077e-5
0.222, 2.080e-5
0.223, 2.086e-5
0.224, 2.080e-5
0.225, 2.077e-5
0.226, 2.080e-5
0.227, 2.083e-5
0.228, 2.080e-5
0.229, 2.080e-5
0.230, 2.086e-5
0.231, 2.080e-5
0.232, 2.080e-5
0.233, 2.074e-5
0.234, 2.077e-5
0.235, 2.077e-5
0.236, 2.077e-5
0.237, 2.074e-5
0.238, 2.071e-5
0.239, 2.077e-5
0.240, 2.077e-5
0.241, 2.068e-5
0.242, 2.071e-5
0.243, 2.065e-5
0.244, 2.080e-5
0.245, 2.068e-5
0.246, 2.071e-5
0.247, 2.074e-5
0.248, 2.071e-5
0.249, 2.071e-5
0.250, 2.071e-5
0.251, 2.074e-5
0.252, 2.077e-5
0.253, 2.074e-5
0.254, 2.065e-5
0.255, 2.080e-5
0.256, 2.068e-5
0.257, 2.074e-5
0.258, 2.071e-5
0.259, 2.074e-5
0.260, 2.074e-5
0.261, 2.074e-5
0.262, 2.071e-5
0.263, 2.083e-5
0.264, 2.071e-5
0.265, 2.074e-5
0.266, 2.077e-5
0.267, 2.086e-5
0.268, 2.083e-5
0.269, 2.077e-5
0.270, 2.086e-5
0.271, 2.089e-5
0.272, 2.089e-5
0.273, 2.086e-5
0.274, 2.089e-5
0.275, 2.092e-5
0.276, 2.095e-5
0.277, 2.098e-5
0.278, 2.095e-5
0.279, 2.108e-5
0.280, 2.101e-5
0.281, 2.114e-5
0.282, 2.117e-5
0.283, 2.117e-5
0.284, 2.117e-5
0.285, 2.123e-5
0.286, 2.123e-5
0.287, 2.129e-5
0.288, 2.126e-5
0.289, 2.135e-5
0.290, 2.141e-5
0.291, 2.141e-5
0.292, 2.147e-5
0.293, 2.153e-5
0.294, 2.150e-5
0.295, 2.159e-5
0.296, 2.171e-5
0.297, 2.171e-5
0.298, 2.168e-5
0.299, 2.187e-5
0.300, 2.199e-5
0.301, 2.199e-5
0.302, 2.199e-5
0.303, 2.211e-5
0.304, 2.220e-5
0.305, 2.229e-5
0.306, 2.235e-5
0.307, 2.251e-5
0.308, 2.254e-5
0.309, 2.266e-5
0.310, 2.266e-5
0.311, 2.284e-5
0.312, 2.290e-5
0.313, 2.302e-5
0.314, 2.312e-5
0.315, 2.324e-5
0.316, 2.336e-5
0.317, 2.348e-5
0.318, 2.354e-5
0.319, 2.372e-5
0.320, 2.376e-5
0.321, 2.397e-5
0.322, 2.412e-5
0.323, 2.427e-5
0.324, 2.446e-5
0.325, 2.464e-5
0.326, 2.467e-5
0.327, 2.491e-5
0.328, 2.503e-5
0.329, 2.525e-5
0.330, 2.540e-5
0.331, 2.555e-5
0.332, 2.583e-5
0.333, 2.604e-5
0.334, 2.619e-5
0.335, 2.643e-5
0.336, 2.662e-5
0.337, 2.677e-5
0.338, 2.698e-5
0.339, 2.723e-5
0.340, 2.753e-5
0.341, 2.774e-5
0.342, 2.796e-5
0.343, 2.826e-5
0.344, 2.848e-5
0.345, 2.869e-5
0.346, 2.896e-5
0.347, 2.927e-5
0.348, 2.960e-5
0.349, 2.988e-5
0.350, 3.018e-5
0.351, 3.052e-5
0.352, 3.085e-5
0.353, 3.119e-5
0.354, 3.152e-5
0.355, 3.183e-5
0.356, 3.219e-5
0.357, 3.256e-5
0.358, 3.295e-5
0.359, 3.332e-5
0.360, 3.374e-5
0.361, 3.417e-5
0.362, 3.463e-5
0.363, 3.502e-5
0.364, 3.548e-5
0.365, 3.591e-5
0.366, 3.642e-5
0.367, 3.697e-5
0.368, 3.740e-5
0.369, 3.792e-5
0.370, 3.846e-5
0.371, 3.883e-5
0.372, 3.950e-5
0.373, 4.008e-5
0.374, 4.063e-5
0.375, 4.130e-5
0.376, 4.191e-5
0.377, 4.264e-5
0.378, 4.331e-5
0.379, 4.392e-5
0.380, 4.480e-5
0.381, 4.538e-5
0.382, 4.620e-5
0.383, 4.699e-5
0.384, 4.803e-5
0.385, 4.882e-5
0.386, 4.976e-5
0.387, 5.043e-5
0.388, 5.150e-5
0.389, 5.238e-5
0.390, 5.339e-5
0.391, 5.442e-5
0.392, 5.549e-5
0.393, 5.658e-5
0.394, 5.783e-5
0.395, 5.887e-5
0.396, 6.003e-5
0.397, 6.115e-5
0.398, 6.252e-5
0.399, 6.392e-5
0.400, 6.526e-5
0.401, 6.676e-5
0.402, 6.837e-5
0.403, 6.953e-5
0.404, 7.129e-5
0.405, 7.288e-5
0.406, 7.452e-5
0.407, 7.620e-5
0.408, 7.796e-5
0.409, 7.945e-5
0.410, 8.098e-5
0.411, 8.271e-5
0.412, 8.512e-5
0.413, 8.707e-5
0.414, 8.923e-5
0.415, 9.145e-5
0.416, 9.340e-5
0.417, 9.611e-5
0.418, 9.864e-5
0.419, 1.005e-4
0.420, 1.029e-4
0.421, 1.056e-4
0.422, 1.079e-4
0.423, 1.107e-4
0.424, 1.131e-4
0.425, 1.166e-4
0.426, 1.193e-4
0.427, 1.216e-4
0.428, 1.250e-4
0.429, 1.278e-4
0.430, 1.312e-4
0.431, 1.341e-4
0.432, 1.371e-4
0.433, 1.409e-4
0.434, 1.443e-4
0.435, 1.481e-4
0.436, 1.510e-4
0.437, 1.549e-4
0.438, 1.581e-4
0.439, 1.612e-4
0.440, 1.648e-4
0.441, 1.690e-4
0.442, 1.728e-4
0.443, 1.750e-4
0.444, 1.795e-4
0.445, 1.832e-4
0.446, 1.867e-4
0.447, 1.905e-4
0.448, 1.917e-4
0.449, 1.979e-4
0.450, 2.012e-4
0.451, 2.034e-4
0.452, 2.079e-4
0.453, 2.123e-4
0.454, 2.153e-4
0.455, 2.178e-4
0.456, 2.216e-4
0.457, 2.258e-4
0.458, 2.290e-4
0.459, 2.306e-4
0.460, 2.358e-4
0.461, 2.374e-4
0.462, 2.412e-4
0.463, 2.440e-4
0.464, 2.461e-4
0.465, 2.509e-4
0.466, 2.518e-4
0.467, 2.534e-4
0.468, 2.578e-4
0.469, 2.603e-4
0.470, 2.620e-4
0.471, 2.636e-4
0.472, 2.652e-4
0.473, 2.686e-4
0.474, 2.696e-4
0.475, 2.699e-4
0.476, 2.730e-4
0.477, 2.749e-4
0.478, 2.764e-4
0.479, 2.772e-4
0.480, 2.774e-4
0.481, 2.801e-4
0.482, 2.812e-4
0.483, 2.810e-4
0.484, 2.821e-4
0.485, 2.832e-4
0.486, 2.852e-4
0.487, 2.847e-4
0.488, 2.842e-4
0.489, 2.852e-4
0.490, 2.861e-4
0.491, 2.856e-4
0.492, 2.858e-4
0.493, 2.858e-4
0.494, 2.857e-4
0.495, 2.857e-4
0.496, 2.848e-4
0.497, 2.850e-4
0.498, 2.847e-4
0.499, 2.837e-4
0.500, 2.835e-4
0.501, 2.828e-4
0.502, 2.825e-4
0.503, 2.823e-4
0.504, 2.807e-4
0.505, 2.804e-4
0.506, 2.797e-4
0.507, 2.786e-4
0.508, 2.778e-4
0.509, 2.767e-4
0.510, 2.759e-4
0.511, 2.751e-4
0.512, 2.742e-4
0.513, 2.730e-4
0.514, 2.717e-4
0.515, 2.705e-4
0.516, 2.694e-4
0.517, 2.680e-4
0.518, 2.669e-4
0.519, 2.657e-4
0.520, 2.642e-4
0.521, 2.630e-4
0.522, 2.618e-4
0.523, 2.604e-4
0.524, 2.592e-4
0.525, 2.573e-4
0.526, 2.564e-4
0.527, 2.551e-4
0.528, 2.535e-4
0.529, 2.521e-4
0.530, 2.510e-4
0.531, 2.495e-4
0.532, 2.482e-4
0.533, 2.467e-4
0.534, 2.454e-4
0.535, 2.441e-4
0.536, 2.426e-4
0.537, 2.413e-4
0.538, 2.400e-4
0.539, 2.386e-4
0.540, 2.373e-4
0.541, 2.358e-4
0.542, 2.345e-4
0.543, 2.333e-4
0.544, 2.318e-4
0.545, 2.304e-4
0.546, 2.292e-4
0.547, 2.279e-4
0.548, 2.265e-4
0.549, 2.252e-4
0.550, 2.239e-4
0.551, 2.227e-4
0.552, 2.215e-4
0.553, 2.201e-4
0.554, 2.190e-4
0.555, 2.178e-4
0.556, 2.166e-4
0.557, 2.153e-4
0.558, 2.142e-4
0.559, 2.130e-4
0.560, 2.119e-4
0.561, 2.107e-4
0.562, 2.096e-4
0.563, 2.084e-4
0.564, 2.074e-4
0.565, 2.062e-4
0.566, 2.052e-4
0.567, 2.042e-4
0.568, 2.031e-4
0.569, 2.020e-4
0.570, 2.009e-4
0.571, 1.999e-4
0.572, 1.990e-4
0.573, 1.979e-4
0.574, 1.969e-4
0.575, 1.960e-4
0.576, 1.949e-4
0.577, 1.940e-4
0.578, 1.931e-4
0.579, 1.922e-4
0.580, 1.913e-4
0.581, 1.903e-4
0.582, 1.895e-4
0.583, 1.887e-4
0.584, 1.878e-4
0.585, 1.869e-4
0.586, 1.860e-4
0.587, 1.852e-4
0.588, 1.844e-4
0.589, 1.836e-4
0.590, 1.828e-4
0.591, 1.821e-4
0.592, 1.812e-4
0.593, 1.804e-4
0.594, 1.796e-4
0.595, 1.789e-4
0.596, 1.781e-4
0.597, 1.774e-4
0.598, 1.766e-4
0.599, 1.760e-4
0.600, 1.752e-4
0.601, 1.744e-4
0.602, 1.738e-4
0.603, 1.731e-4
0.604, 1.724e-4
0.605, 1.718e-4
0.606, 1.710e-4
0.607, 1.704e-4
0.608, 1.697e-4
0.609, 1.690e-4
0.610, 1.685e-4
0.611, 1.679e-4
0.612, 1.672e-4
0.613, 1.666e-4
0.614, 1.658e-4
0.615, 1.654e-4
0.616, 1.648e-4
0.617, 1.642e-4
0.618, 1.636e-4
0.619, 1.630e-4
0.620, 1.624e-4
0.621, 1.620e-4
0.622, 1.614e-4
0.623, 1.609e-4
0.624, 1.603e-4
0.625, 1.597e-4
0.626, 1.592e-4
0.627, 1.586e-4
0.628, 1.581e-4
0.629, 1.576e-4
0.630, 1.571e-4
0.631, 1.567e-4
0.632, 1.561e-4
0.633, 1.556e-4
0.634, 1.551e-4
0.635, 1.546e-4
0.636, 1.542e-4
0.637, 1.536e-4
0.638, 1.532e-4
0.639, 1.527e-4
0.640, 1.524e-4
0.641, 1.518e-4
0.642, 1.514e-4
0.643, 1.509e-4
0.644, 1.506e-4
0.645, 1.500e-4
0.646, 1.496e-4
0.647, 1.492e-4
0.648, 1.487e-4
0.649, 1.483e-4
0.650, 1.478e-4
0.651, 1.475e-4
0.652, 1.471e-4
0.653, 1.467e-4
0.654, 1.462e-4
0.655, 1.459e-4
0.656, 1.455e-4
0.657, 1.451e-4
0.658, 1.447e-4
0.659, 1.443e-4
0.660, 1.440e-4
0.661, 1.436e-4
0.662, 1.432e-4
0.663, 1.429e-4
0.664, 1.425e-4
0.665, 1.421e-4
0.666, 1.417e-4
0.667, 1.414e-4
0.668, 1.411e-4
0.669, 1.407e-4
0.670, 1.403e-4
0.671, 1.400e-4
0.672, 1.396e-4
0.673, 1.393e-4
0.674, 1.390e-4
0.675, 1.386e-4
0.676, 1.384e-4
0.677, 1.380e-4
0.678, 1.376e-4
0.679, 1.373e-4
0.680, 1.370e-4
0.681, 1.367e-4
0.682, 1.364e-4
0.683, 1.360e-4
0.684, 1.358e-4
0.685, 1.355e-4
0.686, 1.352e-4
0.687, 1.349e-4
0.688, 1.346e-4
0.689, 1.342e-4
0.690, 1.340e-4
0.691, 1.337e-4
0.692, 1.334e-4
0.693, 1.331e-4
0.694, 1.329e-4
0.695, 1.326e-4
0.696, 1.323e-4
0.697, 1.320e-4
0.698, 1.317e-4
0.699, 1.314e-4
0.700, 1.312e-4
0.701, 1.310e-4
0.702, 1.306e-4
0.703, 1.304e-4
0.704, 1.301e-4
0.705, 1.299e-4
0.706, 1.296e-4
0.707, 1.293e-4
0.708, 1.291e-4
0.709, 1.288e-4
0.710, 1.286e-4
0.711, 1.283e-4
0.712, 1.280e-4
0.713, 1.278e-4
0.714, 1.276e-4
0.715, 1.273e-4
0.716, 1.271e-4
0.717, 1.268e-4
0.718, 1.266e-4
0.719, 1.264e-4
0.720, 1.261e-4
0.721, 1.259e-4
0.722, 1.257e-4
0.723, 1.254e-4
0.724, 1.251e-4
0.725, 1.250e-4
0.726, 1.247e-4
0.727, 1.245e-4
0.728, 1.242e-4
0.729, 1.240e-4
0.730, 1.238e-4
0.731, 1.235e-4
0.732, 1.234e-4
0.733, 1.232e-4
0.734, 1.230e-4
0.735, 1.227e-4
0.736, 1.225e-4
0.737, 1.223e-4
0.738, 1.222e-4
0.739, 1.218e-4
0.740, 1.217e-4
0.741, 1.215e-4
0.742, 1.214e-4
0.743, 1.211e-4
0.744, 1.209e-4
0.745, 1.206e-4
0.746, 1.205e-4
0.747, 1.202e-4
0.748, 1.200e-4
0.749, 1.199e-4
0.750, 1.196e-4
0.751, 1.194e-4
0.752, 1.193e-4
0.753, 1.191e-4
0.754, 1.190e-4
0.755, 1.186e-4
0.756, 1.185e-4
0.757, 1.183e-4
0.758, 1.182e-4
0.759, 1.179e-4
0.760, 1.178e-4
0.761, 1.176e-4
0.762, 1.175e-4
0.763, 1.172e-4
0.764, 1.171e-4
0.765, 1.169e-4
0.766, 1.167e-4
0.767, 1.166e-4
0.768, 1.163e-4
0.769, 1.162e-4
0.770, 1.160e-4
0.771, 1.158e-4
0.772, 1.157e-4
0.773, 1.155e-4
0.774, 1.153e-4
0.775, 1.152e-4
0.776, 1.150e-4
0.777, 1.148e-4
0.778, 1.147e-4
0.779, 1.145e-4
0.780, 1.143e-4
0.781, 1.142e-4
0.782, 1.140e-4
0.783, 1.139e-4
0.784, 1.137e-4
0.785, 1.135e-4
0.786, 1.134e-4
0.787, 1.133e-4
0.788, 1.131e-4
0.789, 1.130e-4
0.790, 1.128e-4
0.791, 1.127e-4
0.792, 1.124e-4
0.793, 1.124e-4
0.794, 1.122e-4
0.795, 1.121e-4
0.796, 1.119e-4
0.797, 1.117e-4
0.798, 1.116e-4
0.799, 1.115e-4
0.800, 1.113e-4
0.801, 1.111e-4
0.802, 1.110e-4
0.803, 1.109e-4
0.804, 1.107e-4
0.805, 1.105e-4
0.806, 1.104e-4
0.807, 1.103e-4
0.808, 1.101e-4
0.809, 1.100e-4
0.810, 1.099e-4
0.811, 1.097e-4
0.812, 1.095e-4
0.813, 1.094e-4
0.814, 1.093e-4
0.815, 1.092e-4
0.816, 1.090e-4
0.817, 1.088e-4
0.818, 1.088e-4
0.819, 1.084e-4
0.820, 1.084e-4
0.821, 1.083e-4
0.822, 1.082e-4
0.823, 1.081e-4
0.824, 1.079e-4
0.825, 1.078e-4
0.826, 1.077e-4
0.827, 1.075e-4
0.828, 1.074e-4
0.829, 1.073e-4
0.830, 1.072e-4
0.831, 1.071e-4
0.832, 1.068e-4
0.833, 1.068e-4
0.834, 1.067e-4
0.835, 1.066e-4
0.836, 1.063e-4
0.837, 1.063e-4
0.838, 1.062e-4
0.839, 1.062e-4
0.840, 1.059e-4
0.841, 1.058e-4
0.842, 1.057e-4
0.843, 1.056e-4
0.844, 1.056e-4
0.845, 1.054e-4
0.846, 1.053e-4
0.847, 1.052e-4
0.848, 1.050e-4
0.849, 1.049e-4
0.850, 1.049e-4
0.851, 1.046e-4
0.852, 1.046e-4
0.853, 1.045e-4
0.854, 1.044e-4
0.855, 1.042e-4
0.856, 1.041e-4
0.857, 1.039e-4
0.858, 1.039e-4
0.859, 1.038e-4
0.860, 1.037e-4
0.861, 1.035e-4
0.862, 1.034e-4
0.863, 1.034e-4
0.864, 1.032e-4
0.865, 1.031e-4
0.866, 1.031e-4
0.867, 1.029e-4
0.868, 1.029e-4
0.869, 1.027e-4
0.870, 1.025e-4
0.871, 1.025e-4
0.872, 1.024e-4
0.873, 1.023e-4
0.874, 1.022e-4
0.875, 1.021e-4
0.876, 1.021e-4
0.877, 1.019e-4
0.878, 1.017e-4
0.879, 1.017e-4
0.880, 1.016e-4
0.881, 1.014e-4
0.882, 1.014e-4
0.883, 1.012e-4
0.884, 1.012e-4
0.885, 1.010e-4
0.886, 1.009e-4
0.887, 1.009e-4
0.888, 1.007e-4
0.889, 1.006e-4
0.890, 1.005e-4
0.891, 1.005e-4
0.892, 1.004e-4
0.893, 1.002e-4
0.894, 1.001e-4
0.895, 1.001e-4
0.896, 1.000e-4
0.897, 9.977e-5
0.898, 9.977e-5
0.899, 9.971e-5
0.900, 9.961e-5
0.901, 9.943e-5
0.902, 9.937e-5
0.903, 9.934e-5
0.904, 9.919e-5
0.905, 9.904e-5
0.906, 9.901e-5
0.907, 9.894e-5
0.908, 9.885e-5
0.909, 9.870e-5
0.910, 9.864e-5
0.911, 9.861e-5
0.912, 9.852e-5
0.913, 9.827e-5
0.914, 9.827e-5
0.915, 9.824e-5
0.916, 9.812e-5
0.917, 9.797e-5
0.918, 9.794e-5
0.919, 9.791e-5
0.920, 9.776e-5
0.921, 9.776e-5
0.922, 9.760e-5
0.923, 9.748e-5
0.924, 9.739e-5
0.925, 9.733e-5
0.926, 9.724e-5
0.927, 9.721e-5
0.928, 9.709e-5
0.929, 9.697e-5
0.930, 9.690e-5
0.931, 9.684e-5
0.932, 9.669e-5
0.933, 9.669e-5
0.934, 9.651e-5
0.935, 9.660e-5
0.936, 9.642e-5
0.937, 9.633e-5
0.938, 9.630e-5
0.939, 9.614e-5
0.940, 9.611e-5
0.941, 9.602e-5
0.942, 9.590e-5
0.943, 9.590e-5
0.944, 9.575e-5
0.945, 9.572e-5
0.946, 9.566e-5
0.947, 9.563e-5
0.948, 9.547e-5
0.949, 9.544e-5
0.950, 9.538e-5
0.951, 9.529e-5
0.952, 9.517e-5
0.953, 9.514e-5
0.954, 9.508e-5
0.955, 9.489e-5
0.956, 9.489e-5
0.957, 9.480e-5
0.958, 9.471e-5
0.959, 9.468e-5
0.960, 9.453e-5
0.961, 9.450e-5
0.962, 9.444e-5
0.963, 9.429e-5
0.964, 9.435e-5
0.965, 9.425e-5
0.966, 9.404e-5
0.967, 9.398e-5
0.968, 9.401e-5
0.969, 9.386e-5
0.970, 9.377e-5
0.971, 9.374e-5
0.972, 9.371e-5
0.973, 9.368e-5
0.974, 9.355e-5
0.975, 9.346e-5
0.976, 9.343e-5
0.977, 9.334e-5
0.978, 9.325e-5
0.979, 9.319e-5
0.980, 9.319e-5
0.981, 9.310e-5
0.982, 9.298e-5
0.983, 9.292e-5
0.984, 9.292e-5
0.985, 9.273e-5
0.986, 9.273e-5
0.987, 9.264e-5
0.988, 9.264e-5
0.989, 9.264e-5
0.990, 9.240e-5
0.991, 9.246e-5
0.992, 9.237e-5
0.993, 9.234e-5
0.994, 9.225e-5
0.995, 9.215e-5
0.996, 9.215e-5
0.997, 9.212e-5
0.998, 9.209e-5
0.999, 9.200e-5
1.000, 8.853e-5
0.999, 8.749e-5
0.998, 8.710e-5
0.997, 8.676e-5
0.996, 8.643e-5
0.995, 8.606e-5
0.994, 8.582e-5
0.993, 8.548e-5
0.992, 8.542e-5
0.991, 8.506e-5
0.990, 8.481e-5
0.989, 8.466e-5
0.988, 8.448e-5
0.987, 8.421e-5
0.986, 8.411e-5
0.985, 8.393e-5
0.984, 8.375e-5
0.983, 8.350e-5
0.982, 8.335e-5
0.981, 8.317e-5
0.980, 8.302e-5
0.979, 8.283e-5
0.978, 8.268e-5
0.977, 8.256e-5
0.976, 8.244e-5
0.975, 8.220e-5
0.974, 8.207e-5
0.973, 8.198e-5
0.972, 8.183e-5
0.971, 8.165e-5
0.970, 8.159e-5
0.969, 8.137e-5
0.968, 8.125e-5
0.967, 8.107e-5
0.966, 8.098e-5
0.965, 8.089e-5
0.964, 8.070e-5
0.963, 8.055e-5
0.962, 8.055e-5
0.961, 8.034e-5
0.960, 8.022e-5
0.959, 8.012e-5
0.958, 7.997e-5
0.957, 7.979e-5
0.956, 7.973e-5
0.955, 7.964e-5
0.954, 7.955e-5
0.953, 7.930e-5
0.952, 7.924e-5
0.951, 7.921e-5
0.950, 7.909e-5
0.949, 7.888e-5
0.948, 7.882e-5
0.947, 7.875e-5
0.946, 7.857e-5
0.945, 7.845e-5
0.944, 7.830e-5
0.943, 7.827e-5
0.942, 7.821e-5
0.941, 7.802e-5
0.940, 7.790e-5
0.939, 7.778e-5
0.938, 7.772e-5
0.937, 7.766e-5
0.936, 7.754e-5
0.935, 7.760e-5
0.934, 7.735e-5
0.933, 7.720e-5
0.932, 7.711e-5
0.931, 7.705e-5
0.930, 7.705e-5
0.929, 7.677e-5
0.928, 7.671e-5
0.927, 7.674e-5
0.926, 7.659e-5
0.925, 7.647e-5
0.924, 7.635e-5
0.923, 7.626e-5
0.922, 7.620e-5
0.921, 7.610e-5
0.920, 7.604e-5
0.919, 7.598e-5
0.918, 7.580e-5
0.917, 7.577e-5
0.916, 7.559e-5
0.915, 7.556e-5
0.914, 7.543e-5
0.913, 7.540e-5
0.912, 7.534e-5
0.911, 7.525e-5
0.910, 7.510e-5
0.909, 7.516e-5
0.908, 7.501e-5
0.907, 7.492e-5
0.906, 7.480e-5
0.905, 7.473e-5
0.904, 7.464e-5
0.903, 7.467e-5
0.902, 7.440e-5
0.901, 7.437e-5
0.900, 7.431e-5
0.899, 7.428e-5
0.898, 7.419e-5
0.897, 7.406e-5
0.896, 7.388e-5
0.895, 7.385e-5
0.894, 7.373e-5
0.893, 7.382e-5
0.892, 7.367e-5
0.891, 7.352e-5
0.890, 7.349e-5
0.889, 7.346e-5
0.888, 7.336e-5
0.887, 7.330e-5
0.886, 7.315e-5
0.885, 7.312e-5
0.884, 7.309e-5
0.883, 7.294e-5
0.882, 7.288e-5
0.881, 7.279e-5
0.880, 7.269e-5
0.879, 7.266e-5
0.878, 7.257e-5
0.877, 7.248e-5
0.876, 7.233e-5
0.875, 7.227e-5
0.874, 7.227e-5
0.873, 7.221e-5
0.872, 7.208e-5
0.871, 7.199e-5
0.870, 7.196e-5
0.869, 7.193e-5
0.868, 7.181e-5
0.867, 7.172e-5
0.866, 7.166e-5
0.865, 7.163e-5
0.864, 7.154e-5
0.863, 7.145e-5
0.862, 7.135e-5
0.861, 7.129e-5
0.860, 7.114e-5
0.859, 7.114e-5
0.858, 7.114e-5
0.857, 7.099e-5
0.856, 7.093e-5
0.855, 7.084e-5
0.854, 7.081e-5
0.853, 7.074e-5
0.852, 7.065e-5
0.851, 7.053e-5
0.850, 7.053e-5
0.849, 7.053e-5
0.848, 7.035e-5
0.847, 7.029e-5
0.846, 7.026e-5
0.845, 7.014e-5
0.844, 7.014e-5
0.843, 7.004e-5
0.842, 7.001e-5
0.841, 6.989e-5
0.840, 6.986e-5
0.839, 6.980e-5
0.838, 6.980e-5
0.837, 6.965e-5
0.836, 6.959e-5
0.835, 6.956e-5
0.834, 6.953e-5
0.833, 6.934e-5
0.832, 6.940e-5
0.831, 6.934e-5
0.830, 6.925e-5
0.829, 6.916e-5
0.828, 6.913e-5
0.827, 6.904e-5
0.826, 6.904e-5
0.825, 6.892e-5
0.824, 6.889e-5
0.823, 6.883e-5
0.822, 6.877e-5
0.821, 6.873e-5
0.820, 6.864e-5
0.819, 6.855e-5
0.818, 6.852e-5
0.817, 6.846e-5
0.816, 6.846e-5
0.815, 6.828e-5
0.814, 6.825e-5
0.813, 6.822e-5
0.812, 6.822e-5
0.811, 6.813e-5
0.810, 6.806e-5
0.809, 6.800e-5
0.808, 6.800e-5
0.807, 6.797e-5
0.806, 6.782e-5
0.805, 6.779e-5
0.804, 6.773e-5
0.803, 6.764e-5
0.802, 6.755e-5
0.801, 6.758e-5
0.800, 6.749e-5
0.799, 6.739e-5
0.798, 6.733e-5
0.797, 6.736e-5
0.796, 6.724e-5
0.795, 6.715e-5
0.794, 6.706e-5
0.793, 6.709e-5
0.792, 6.706e-5
0.791, 6.691e-5
0.790, 6.685e-5
0.789, 6.682e-5
0.788, 6.682e-5
0.787, 6.663e-5
0.786, 6.666e-5
0.785, 6.660e-5
0.784, 6.654e-5
0.783, 6.654e-5
0.782, 6.639e-5
0.781, 6.645e-5
0.780, 6.636e-5
0.779, 6.627e-5
0.778, 6.627e-5
0.777, 6.621e-5
0.776, 6.615e-5
0.775, 6.605e-5
0.774, 6.599e-5
0.773, 6.599e-5
0.772, 6.596e-5
0.771, 6.578e-5
0.770, 6.581e-5
0.769, 6.578e-5
0.768, 6.572e-5
0.767, 6.563e-5
0.766, 6.560e-5
0.765, 6.557e-5
0.764, 6.554e-5
0.763, 6.548e-5
0.762, 6.542e-5
0.761, 6.539e-5
0.760, 6.535e-5
0.759, 6.526e-5
0.758, 6.520e-5
0.757, 6.523e-5
0.756, 6.511e-5
0.755, 6.502e-5
0.754, 6.502e-5
0.753, 6.502e-5
0.752, 6.490e-5
0.751, 6.490e-5
0.750, 6.484e-5
0.749, 6.484e-5
0.748, 6.475e-5
0.747, 6.468e-5
0.746, 6.459e-5
0.745, 6.456e-5
0.744, 6.459e-5
0.743, 6.444e-5
0.742, 6.438e-5
0.741, 6.441e-5
0.740, 6.435e-5
0.739, 6.429e-5
0.738, 6.426e-5
0.737, 6.420e-5
0.736, 6.417e-5
0.735, 6.414e-5
0.734, 6.401e-5
0.733, 6.401e-5
0.732, 6.395e-5
0.731, 6.389e-5
0.730, 6.389e-5
0.729, 6.380e-5
0.728, 6.380e-5
0.727, 6.371e-5
0.726, 6.365e-5
0.725, 6.362e-5
0.724, 6.359e-5
0.723, 6.353e-5
0.722, 6.344e-5
0.721, 6.334e-5
0.720, 6.338e-5
0.719, 6.331e-5
0.718, 6.328e-5
0.717, 6.316e-5
0.716, 6.322e-5
0.715, 6.313e-5
0.714, 6.298e-5
0.713, 6.292e-5
0.712, 6.301e-5
0.711, 6.292e-5
0.710, 6.274e-5
0.709, 6.280e-5
0.708, 6.277e-5
0.707, 6.280e-5
0.706, 6.264e-5
0.705, 6.258e-5
0.704, 6.261e-5
0.703, 6.258e-5
0.702, 6.246e-5
0.701, 6.243e-5
0.700, 6.240e-5
0.699, 6.234e-5
0.698, 6.231e-5
0.697, 6.222e-5
0.696, 6.219e-5
0.695, 6.216e-5
0.694, 6.204e-5
0.693, 6.207e-5
0.692, 6.197e-5
0.691, 6.197e-5
0.690, 6.185e-5
0.689, 6.179e-5
0.688, 6.188e-5
0.687, 6.179e-5
0.686, 6.167e-5
0.685, 6.164e-5
0.684, 6.170e-5
0.683, 6.158e-5
0.682, 6.155e-5
0.681, 6.146e-5
0.680, 6.143e-5
0.679, 6.143e-5
0.678, 6.137e-5
0.677, 6.127e-5
0.676, 6.124e-5
0.675, 6.115e-5
0.674, 6.109e-5
0.673, 6.106e-5
0.672, 6.103e-5
0.671, 6.094e-5
0.670, 6.091e-5
0.669, 6.085e-5
0.668, 6.082e-5
0.667, 6.073e-5
0.666, 6.070e-5
0.665, 6.063e-5
0.664, 6.063e-5
0.663, 6.057e-5
0.662, 6.054e-5
0.661, 6.042e-5
0.660, 6.039e-5
0.659, 6.030e-5
0.658, 6.027e-5
0.657, 6.021e-5
0.656, 6.018e-5
0.655, 6.009e-5
0.654, 6.006e-5
0.653, 6.006e-5
0.652, 5.993e-5
0.651, 5.981e-5
0.650, 5.981e-5
0.649, 5.975e-5
0.648, 5.966e-5
0.647, 5.963e-5
0.646, 5.951e-5
0.645, 5.948e-5
0.644, 5.942e-5
0.643, 5.936e-5
0.642, 5.929e-5
0.641, 5.920e-5
0.640, 5.911e-5
0.639, 5.908e-5
0.638, 5.896e-5
0.637, 5.893e-5
0.636, 5.884e-5
0.635, 5.878e-5
0.634, 5.881e-5
0.633, 5.853e-5
0.632, 5.859e-5
0.631, 5.853e-5
0.630, 5.841e-5
0.629, 5.829e-5
0.628, 5.820e-5
0.627, 5.814e-5
0.626, 5.811e-5
0.625, 5.795e-5
0.624, 5.789e-5
0.623, 5.780e-5
0.622, 5.774e-5
0.621, 5.762e-5
0.620, 5.747e-5
0.619, 5.735e-5
0.618, 5.731e-5
0.617, 5.716e-5
0.616, 5.713e-5
0.615, 5.716e-5
0.614, 5.695e-5
0.613, 5.677e-5
0.612, 5.668e-5
0.611, 5.658e-5
0.610, 5.640e-5
0.609, 5.625e-5
0.608, 5.616e-5
0.607, 5.604e-5
0.606, 5.588e-5
0.605, 5.570e-5
0.604, 5.561e-5
0.603, 5.555e-5
0.602, 5.530e-5
0.601, 5.515e-5
0.600, 5.500e-5
0.599, 5.485e-5
0.598, 5.460e-5
0.597, 5.445e-5
0.596, 5.424e-5
0.595, 5.412e-5
0.594, 5.390e-5
0.593, 5.366e-5
0.592, 5.348e-5
0.591, 5.333e-5
0.590, 5.302e-5
0.589, 5.272e-5
0.588, 5.253e-5
0.587, 5.235e-5
0.586, 5.214e-5
0.585, 5.180e-5
0.584, 5.159e-5
0.583, 5.141e-5
0.582, 5.107e-5
0.581, 5.083e-5
0.580, 5.043e-5
0.579, 5.019e-5
0.578, 4.982e-5
0.577, 4.949e-5
0.576, 4.924e-5
0.575, 4.888e-5
0.574, 4.842e-5
0.573, 4.818e-5
0.572, 4.772e-5
0.571, 4.727e-5
0.570, 4.693e-5
0.569, 4.644e-5
0.568, 4.608e-5
0.567, 4.559e-5
0.566, 4.504e-5
0.565, 4.462e-5
0.564, 4.407e-5
0.563, 4.349e-5
0.562, 4.303e-5
0.561, 4.245e-5
0.560, 4.194e-5
0.559, 4.133e-5
0.558, 4.066e-5
0.557, 4.005e-5
0.556, 3.929e-5
0.555, 3.859e-5
0.554, 3.801e-5
0.553, 3.725e-5
0.552, 3.639e-5
0.551, 3.575e-5
0.550, 3.487e-5
0.549, 3.411e-5
0.548, 3.310e-5
0.547, 3.228e-5
0.546, 3.131e-5
0.545, 3.036e-5
0.544, 2.933e-5
0.543, 2.832e-5
0.542, 2.720e-5
0.541, 2.628e-5
0.540, 2.497e-5
0.539, 2.382e-5
0.538, 2.232e-5
0.537, 2.126e-5
0.536, 2.001e-5
0.535, 1.861e-5
0.534, 1.730e-5
0.533, 1.590e-5
0.532, 1.425e-5
0.531, 1.282e-5
0.530, 1.142e-5
0.529, 9.685e-6
0.528, 8.071e-6
0.527, 6.396e-6
0.526, 4.569e-6
0.525, 3.351e-6
0.524, 8.539e-7
0.523, -8.819e-7
0.522, -2.831e-6
0.521, -4.871e-6
0.520, -7.003e-6
0.519, -9.287e-6
0.518, -1.136e-5
0.517, -1.367e-5
0.516, -1.617e-5
0.515, -1.833e-5
0.514, -2.055e-5
0.513, -2.327e-5
0.512, -2.643e-5
0.511, -2.875e-5
0.510, -3.149e-5
0.509, -3.380e-5
0.508, -3.712e-5
0.507, -3.968e-5
0.506, -4.209e-5
0.505, -4.537e-5
0.504, -4.869e-5
0.503, -5.174e-5
0.502, -5.500e-5
0.501, -5.771e-5
0.500, -6.188e-5
0.499, -6.401e-5
0.498, -6.748e-5
0.497, -7.096e-5
0.496, -7.482e-5
0.495, -7.863e-5
0.494, -8.186e-5
0.493, -8.515e-5
0.492, -8.962e-5
0.491, -9.294e-5
0.490, -9.602e-5
0.489, -1.000e-4
0.488, -1.038e-4
0.487, -1.086e-4
0.486, -1.112e-4
0.485, -1.151e-4
0.484, -1.197e-4
0.483, -1.228e-4
0.482, -1.249e-4
0.481, -1.290e-4
0.480, -1.333e-4
0.479, -1.370e-4
0.478, -1.391e-4
0.477, -1.426e-4
0.476, -1.478e-4
0.475, -1.500e-4
0.474, -1.514e-4
0.473, -1.559e-4
0.472, -1.589e-4
0.471, -1.627e-4
0.470, -1.647e-4
0.469, -1.668e-4
0.468, -1.722e-4
0.467, -1.733e-4
0.466, -1.745e-4
0.465, -1.789e-4
0.464, -1.813e-4
0.463, -1.834e-4
0.462, -1.849e-4
0.461, -1.859e-4
0.460, -1.906e-4
0.459, -1.921e-4
0.458, -1.917e-4
0.457, -1.947e-4
0.456, -1.966e-4
0.455, -1.988e-4
0.454, -1.991e-4
0.453, -1.994e-4
0.452, -2.027e-4
0.451, -2.033e-4
0.450, -2.032e-4
0.449, -2.041e-4
0.448, -2.040e-4
0.447, -2.066e-4
0.446, -2.066e-4
0.445, -2.064e-4
0.444, -2.074e-4
0.443, -2.081e-4
0.442, -2.078e-4
0.441, -2.081e-4
0.440, -2.078e-4
0.439, -2.085e-4
0.438, -2.085e-4
0.437, -2.077e-4
0.436, -2.076e-4
0.435, -2.085e-4
0.434, -2.074e-4
0.433, -2.070e-4
0.432, -2.060e-4
0.431, -2.061e-4
0.430, -2.054e-4
0.429, -2.042e-4
0.428, -2.040e-4
0.427, -2.031e-4
0.426, -2.024e-4
0.425, -2.014e-4
0.424, -2.004e-4
0.423, -1.997e-4
0.422, -1.987e-4
0.421, -1.974e-4
0.420, -1.966e-4
0.419, -1.956e-4
0.418, -1.945e-4
0.417, -1.934e-4
0.416, -1.921e-4
0.415, -1.910e-4
0.414, -1.898e-4
0.413, -1.885e-4
0.412, -1.874e-4
0.411, -1.862e-4
0.410, -1.835e-4
0.409, -1.829e-4
0.408, -1.818e-4
0.407, -1.810e-4
0.406, -1.798e-4
0.405, -1.782e-4
0.404, -1.771e-4
0.403, -1.757e-4
0.402, -1.744e-4
0.401, -1.732e-4
0.400, -1.719e-4
0.399, -1.707e-4
0.398, -1.693e-4
0.397, -1.677e-4
0.396, -1.666e-4
0.395, -1.654e-4
0.394, -1.642e-4
0.393, -1.629e-4
0.392, -1.616e-4
0.391, -1.604e-4
0.390, -1.591e-4
0.389, -1.578e-4
0.388, -1.566e-4
0.387, -1.555e-4
0.386, -1.542e-4
0.385, -1.530e-4
0.384, -1.519e-4
0.383, -1.506e-4
0.382, -1.495e-4
0.381, -1.483e-4
0.380, -1.472e-4
0.379, -1.459e-4
0.378, -1.448e-4
0.377, -1.437e-4
0.376, -1.426e-4
0.375, -1.414e-4
0.374, -1.405e-4
0.373, -1.393e-4
0.372, -1.382e-4
0.371, -1.372e-4
0.370, -1.361e-4
0.369, -1.351e-4
0.368, -1.341e-4
0.367, -1.331e-4
0.366, -1.321e-4
0.365, -1.311e-4
0.364, -1.302e-4
0.363, -1.292e-4
0.362, -1.283e-4
0.361, -1.273e-4
0.360, -1.264e-4
0.359, -1.254e-4
0.358, -1.246e-4
0.357, -1.237e-4
0.356, -1.228e-4
0.355, -1.219e-4
0.354, -1.211e-4
0.353, -1.202e-4
0.352, -1.194e-4
0.351, -1.185e-4
0.350, -1.178e-4
0.349, -1.170e-4
0.348, -1.161e-4
0.347, -1.153e-4
0.346, -1.146e-4
0.345, -1.139e-4
0.344, -1.131e-4
0.343, -1.124e-4
0.342, -1.116e-4
0.341, -1.109e-4
0.340, -1.102e-4
0.339, -1.095e-4
0.338, -1.088e-4
0.337, -1.081e-4
0.336, -1.074e-4
0.335, -1.068e-4
0.334, -1.061e-4
0.333, -1.056e-4
0.332, -1.048e-4
0.331, -1.042e-4
0.330, -1.035e-4
0.329, -1.030e-4
0.328, -1.024e-4
0.327, -1.017e-4
0.326, -1.012e-4
0.325, -1.006e-4
0.324, -9.998e-5
0.323, -9.943e-5
0.322, -9.888e-5
0.321, -9.833e-5
0.320, -9.772e-5
0.319, -9.721e-5
0.318, -9.672e-5
0.317, -9.620e-5
0.316, -9.568e-5
0.315, -9.520e-5
0.314, -9.462e-5
0.313, -9.416e-5
0.312, -9.364e-5
0.311, -9.316e-5
0.310, -9.270e-5
0.309, -9.218e-5
0.308, -9.172e-5
0.307, -9.130e-5
0.306, -9.081e-5
0.305, -9.035e-5
0.304, -8.990e-5
0.303, -8.941e-5
0.302, -8.908e-5
0.301, -8.862e-5
0.300, -8.819e-5
0.299, -8.774e-5
0.298, -8.734e-5
0.297, -8.691e-5
0.296, -8.649e-5
0.295, -8.600e-5
0.294, -8.570e-5
0.293, -8.536e-5
0.292, -8.493e-5
0.291, -8.451e-5
0.290, -8.414e-5
0.289, -8.381e-5
0.288, -8.335e-5
0.287, -8.302e-5
0.286, -8.262e-5
0.285, -8.238e-5
0.284, -8.195e-5
0.283, -8.161e-5
0.282, -8.128e-5
0.281, -8.091e-5
0.280, -8.058e-5
0.279, -8.018e-5
0.278, -7.994e-5
0.277, -7.957e-5
0.276, -7.924e-5
0.275, -7.890e-5
0.274, -7.860e-5
0.273, -7.829e-5
0.272, -7.793e-5
0.271, -7.762e-5
0.270, -7.735e-5
0.269, -7.702e-5
0.268, -7.671e-5
0.267, -7.644e-5
0.266, -7.610e-5
0.265, -7.583e-5
0.264, -7.555e-5
0.263, -7.522e-5
0.262, -7.498e-5
0.261, -7.470e-5
0.260, -7.443e-5
0.259, -7.412e-5
0.258, -7.382e-5
0.257, -7.357e-5
0.256, -7.330e-5
0.255, -7.300e-5
0.254, -7.278e-5
0.253, -7.245e-5
0.252, -7.227e-5
0.251, -7.199e-5
0.250, -7.169e-5
0.249, -7.147e-5
0.248, -7.120e-5
0.247, -7.093e-5
0.246, -7.077e-5
0.245, -7.047e-5
0.244, -7.022e-5
0.243, -6.998e-5
0.242, -6.974e-5
0.241, -6.952e-5
0.240, -6.928e-5
0.239, -6.901e-5
0.238, -6.879e-5
0.237, -6.858e-5
0.236, -6.837e-5
0.235, -6.815e-5
0.234, -6.788e-5
0.233, -6.770e-5
0.232, -6.748e-5
0.231, -6.730e-5
0.230, -6.706e-5
0.229, -6.678e-5
0.228, -6.660e-5
0.227, -6.642e-5
0.226, -6.624e-5
0.225, -6.599e-5
0.224, -6.581e-5
0.223, -6.560e-5
0.222, -6.541e-5
0.221, -6.520e-5
0.220, -6.499e-5
0.219, -6.483e-5
0.218, -6.456e-5
0.217, -6.441e-5
0.216, -6.419e-5
0.215, -6.401e-5
0.214, -6.380e-5
0.213, -6.365e-5
0.212, -6.346e-5
0.211, -6.325e-5
0.210, -6.304e-5
0.209, -6.292e-5
0.208, -6.273e-5
0.207, -6.252e-5
0.206, -6.231e-5
0.205, -6.197e-5
0.204, -6.200e-5
0.203, -6.182e-5
0.202, -6.161e-5
0.201, -6.142e-5
0.200, -6.130e-5
0.199, -6.112e-5
0.198, -6.097e-5
0.197, -6.075e-5
0.196, -6.060e-5
0.195, -6.045e-5
0.194, -6.030e-5
0.193, -6.011e-5
0.192, -5.990e-5
0.191, -5.975e-5
0.190, -5.960e-5
0.189, -5.944e-5
0.188, -5.926e-5
0.187, -5.911e-5
0.186, -5.896e-5
0.185, -5.884e-5
0.184, -5.868e-5
0.183, -5.847e-5
0.182, -5.835e-5
0.181, -5.817e-5
0.180, -5.804e-5
0.179, -5.792e-5
0.178, -5.771e-5
0.177, -5.756e-5
0.176, -5.746e-5
0.175, -5.731e-5
0.174, -5.713e-5
0.173, -5.695e-5
0.172, -5.686e-5
0.171, -5.673e-5
0.170, -5.655e-5
0.169, -5.643e-5
0.168, -5.625e-5
0.167, -5.609e-5
0.166, -5.594e-5
0.165, -5.585e-5
0.164, -5.567e-5
0.163, -5.555e-5
0.162, -5.539e-5
0.161, -5.530e-5
0.160, -5.512e-5
0.159, -5.500e-5
0.158, -5.485e-5
0.157, -5.472e-5
0.156, -5.460e-5
0.155, -5.448e-5
0.154, -5.430e-5
0.153, -5.421e-5
0.152, -5.408e-5
0.151, -5.390e-5
0.150, -5.381e-5
0.149, -5.363e-5
0.148, -5.354e-5
0.147, -5.344e-5
0.146, -5.329e-5
0.145, -5.314e-5
0.144, -5.299e-5
0.143, -5.287e-5
0.142, -5.281e-5
0.141, -5.265e-5
0.140, -5.247e-5
0.139, -5.241e-5
0.138, -5.223e-5
0.137, -5.217e-5
0.136, -5.201e-5
0.135, -5.192e-5
0.134, -5.180e-5
0.133, -5.168e-5
0.132, -5.156e-5
0.131, -5.147e-5
0.130, -5.137e-5
0.129, -5.122e-5
0.128, -5.116e-5
0.127, -5.098e-5
0.126, -5.089e-5
0.125, -5.073e-5
0.124, -5.064e-5
0.123, -5.055e-5
0.122, -5.043e-5
0.121, -5.034e-5
0.120, -5.016e-5
0.119, -5.013e-5
0.118, -5.000e-5
0.117, -4.982e-5
0.116, -4.970e-5
0.115, -4.970e-5
0.114, -4.958e-5
0.113, -4.946e-5
0.112, -4.927e-5
0.111, -4.924e-5
0.110, -4.912e-5
0.109, -4.900e-5
0.108, -4.891e-5
0.107, -4.885e-5
0.106, -4.869e-5
0.105, -4.857e-5
0.104, -4.848e-5
0.103, -4.845e-5
0.102, -4.836e-5
0.101, -4.818e-5
0.100, -4.808e-5
0.099, -4.799e-5
0.098, -4.790e-5
0.097, -4.775e-5
0.096, -4.766e-5
0.095, -4.763e-5
0.094, -4.754e-5
0.093, -4.735e-5
0.092, -4.726e-5
0.091, -4.723e-5
0.090, -4.705e-5
0.089, -4.699e-5
0.088, -4.687e-5
0.087, -4.681e-5
0.086, -4.671e-5
0.085, -4.659e-5
0.084, -4.653e-5
0.083, -4.641e-5
0.082, -4.632e-5
0.081, -4.620e-5
0.080, -4.614e-5
0.079, -4.601e-5
0.078, -4.595e-5
0.077, -4.592e-5
0.076, -4.580e-5
0.075, -4.571e-5
0.074, -4.562e-5
0.073, -4.547e-5
0.072, -4.544e-5
0.071, -4.534e-5
0.070, -4.528e-5
0.069, -4.516e-5
0.068, -4.510e-5
0.067, -4.504e-5
0.066, -4.495e-5
0.065, -4.483e-5
0.064, -4.467e-5
0.063, -4.467e-5
0.062, -4.461e-5
0.061, -4.452e-5
0.060, -4.440e-5
0.059, -4.434e-5
0.058, -4.428e-5
0.057, -4.422e-5
0.056, -4.413e-5
0.055, -4.400e-5
0.054, -4.394e-5
0.053, -4.385e-5
0.052, -4.382e-5
0.051, -4.367e-5
0.050, -4.364e-5
0.049, -4.358e-5
0.048, -4.349e-5
0.047, -4.340e-5
0.046, -4.333e-5
0.045, -4.324e-5
0.044, -4.315e-5
0.043, -4.309e-5
0.042, -4.303e-5
0.041, -4.297e-5
0.040, -4.285e-5
0.039, -4.273e-5
0.038, -4.276e-5
0.037, -4.263e-5
0.036, -4.254e-5
0.035, -4.251e-5
0.034, -4.248e-5
0.033, -4.236e-5
0.032, -4.227e-5
0.031, -4.218e-5
0.030, -4.221e-5
0.029, -4.212e-5
0.028, -4.202e-5
0.027, -4.193e-5
0.026, -4.196e-5
0.025, -4.184e-5
0.024, -4.175e-5
0.023, -4.166e-5
0.022, -4.166e-5
0.021, -4.154e-5
0.020, -4.148e-5
0.019, -4.142e-5
0.018, -4.139e-5
0.017, -4.129e-5
0.016, -4.120e-5
0.015, -4.114e-5
0.014, -4.111e-5
0.013, -4.099e-5
0.012, -4.096e-5
0.011, -4.093e-5
0.010, -4.084e-5
0.009, -4.078e-5
0.008, -4.068e-5
0.007, -4.062e-5
0.006, -4.059e-5
0.005, -4.053e-5
0.004, -4.044e-5
0.003, -4.038e-5
0.002, -4.035e-5
0.001, -4.029e-5
