May 7, 2026   14:59:14
Cyclic Voltammetry
File: mecn_ar_0.1mtbapf6_3mmfc_1mmfe-tpypy2me_-1.7_to_1v_50mvs
Data Source:  Experiment
Instrument Model:  CHI660D
Header: 
Note: 

Init E (V) = 0
High E (V) = 1
Low E (V) = -1.7
Final E (V) = 0
Init P/N = N
Scan Rate (V/s) = 0.05
Segment = 3
Sample Interval (V) = 0.001
Quiet Time (sec) = 2
Sensitivity (A/V) = 1e-4
Comp R (ohm) = 134.2

Results:

Channel 1:
Segment 1:
Ep = -0.435V
ip = -2.989e-8A
Ah = -1.660e-8C

Ep = -1.015V
ip = -2.621e-5A
Ah = -5.278e-5C

Segment 2:
Ep = -0.896V
ip = 2.695e-5A
Ah = 5.555e-5C

Ep = 0.493V
ip = 8.577e-5A
Ah = 1.019e-4C

Segment 3:
Ep = 0.435V
ip = -8.995e-5A
Ah = -1.166e-4C

Potential/V, Current/A

0.000, -2.776e-6
-0.001, -2.868e-6
-0.002, -2.898e-6
-0.003, -2.909e-6
-0.004, -2.926e-6
-0.005, -2.929e-6
-0.006, -2.929e-6
-0.007, -2.937e-6
-0.008, -2.936e-6
-0.009, -2.941e-6
-0.010, -2.941e-6
-0.011, -2.942e-6
-0.012, -2.940e-6
-0.013, -2.938e-6
-0.014, -2.937e-6
-0.015, -2.937e-6
-0.016, -2.938e-6
-0.017, -2.936e-6
-0.018, -2.933e-6
-0.019, -2.931e-6
-0.020, -2.933e-6
-0.021, -2.928e-6
-0.022, -2.923e-6
-0.023, -2.928e-6
-0.024, -2.926e-6
-0.025, -2.929e-6
-0.026, -2.919e-6
-0.027, -2.919e-6
-0.028, -2.915e-6
-0.029, -2.913e-6
-0.030, -2.911e-6
-0.031, -2.912e-6
-0.032, -2.906e-6
-0.033, -2.905e-6
-0.034, -2.903e-6
-0.035, -2.899e-6
-0.036, -2.902e-6
-0.037, -2.902e-6
-0.038, -2.885e-6
-0.039, -2.891e-6
-0.040, -2.893e-6
-0.041, -2.892e-6
-0.042, -2.891e-6
-0.043, -2.888e-6
-0.044, -2.886e-6
-0.045, -2.885e-6
-0.046, -2.880e-6
-0.047, -2.879e-6
-0.048, -2.881e-6
-0.049, -2.882e-6
-0.050, -2.877e-6
-0.051, -2.871e-6
-0.052, -2.876e-6
-0.053, -2.879e-6
-0.054, -2.869e-6
-0.055, -2.871e-6
-0.056, -2.870e-6
-0.057, -2.867e-6
-0.058, -2.867e-6
-0.059, -2.869e-6
-0.060, -2.867e-6
-0.061, -2.869e-6
-0.062, -2.864e-6
-0.063, -2.865e-6
-0.064, -2.856e-6
-0.065, -2.861e-6
-0.066, -2.859e-6
-0.067, -2.859e-6
-0.068, -2.863e-6
-0.069, -2.863e-6
-0.070, -2.859e-6
-0.071, -2.863e-6
-0.072, -2.862e-6
-0.073, -2.859e-6
-0.074, -2.861e-6
-0.075, -2.858e-6
-0.076, -2.868e-6
-0.077, -2.865e-6
-0.078, -2.859e-6
-0.079, -2.865e-6
-0.080, -2.862e-6
-0.081, -2.864e-6
-0.082, -2.861e-6
-0.083, -2.861e-6
-0.084, -2.864e-6
-0.085, -2.864e-6
-0.086, -2.858e-6
-0.087, -2.866e-6
-0.088, -2.863e-6
-0.089, -2.859e-6
-0.090, -2.861e-6
-0.091, -2.860e-6
-0.092, -2.868e-6
-0.093, -2.866e-6
-0.094, -2.866e-6
-0.095, -2.868e-6
-0.096, -2.869e-6
-0.097, -2.868e-6
-0.098, -2.871e-6
-0.099, -2.871e-6
-0.100, -2.878e-6
-0.101, -2.871e-6
-0.102, -2.880e-6
-0.103, -2.877e-6
-0.104, -2.882e-6
-0.105, -2.880e-6
-0.106, -2.880e-6
-0.107, -2.882e-6
-0.108, -2.880e-6
-0.109, -2.886e-6
-0.110, -2.884e-6
-0.111, -2.891e-6
-0.112, -2.888e-6
-0.113, -2.885e-6
-0.114, -2.891e-6
-0.115, -2.881e-6
-0.116, -2.895e-6
-0.117, -2.893e-6
-0.118, -2.891e-6
-0.119, -2.898e-6
-0.120, -2.902e-6
-0.121, -2.900e-6
-0.122, -2.899e-6
-0.123, -2.905e-6
-0.124, -2.904e-6
-0.125, -2.910e-6
-0.126, -2.906e-6
-0.127, -2.911e-6
-0.128, -2.928e-6
-0.129, -2.917e-6
-0.130, -2.916e-6
-0.131, -2.916e-6
-0.132, -2.925e-6
-0.133, -2.924e-6
-0.134, -2.923e-6
-0.135, -2.927e-6
-0.136, -2.933e-6
-0.137, -2.931e-6
-0.138, -2.933e-6
-0.139, -2.932e-6
-0.140, -2.936e-6
-0.141, -2.936e-6
-0.142, -2.937e-6
-0.143, -2.947e-6
-0.144, -2.946e-6
-0.145, -2.945e-6
-0.146, -2.951e-6
-0.147, -2.952e-6
-0.148, -2.958e-6
-0.149, -2.957e-6
-0.150, -2.958e-6
-0.151, -2.963e-6
-0.152, -2.966e-6
-0.153, -2.963e-6
-0.154, -2.969e-6
-0.155, -2.973e-6
-0.156, -2.979e-6
-0.157, -2.978e-6
-0.158, -2.979e-6
-0.159, -2.986e-6
-0.160, -2.987e-6
-0.161, -2.989e-6
-0.162, -2.992e-6
-0.163, -2.993e-6
-0.164, -3.002e-6
-0.165, -3.002e-6
-0.166, -2.992e-6
-0.167, -3.004e-6
-0.168, -3.010e-6
-0.169, -3.013e-6
-0.170, -3.012e-6
-0.171, -3.016e-6
-0.172, -3.022e-6
-0.173, -3.021e-6
-0.174, -3.025e-6
-0.175, -3.031e-6
-0.176, -3.033e-6
-0.177, -3.036e-6
-0.178, -3.034e-6
-0.179, -3.049e-6
-0.180, -3.053e-6
-0.181, -3.051e-6
-0.182, -3.046e-6
-0.183, -3.054e-6
-0.184, -3.058e-6
-0.185, -3.058e-6
-0.186, -3.061e-6
-0.187, -3.065e-6
-0.188, -3.072e-6
-0.189, -3.072e-6
-0.190, -3.072e-6
-0.191, -3.082e-6
-0.192, -3.071e-6
-0.193, -3.087e-6
-0.194, -3.087e-6
-0.195, -3.088e-6
-0.196, -3.098e-6
-0.197, -3.101e-6
-0.198, -3.095e-6
-0.199, -3.104e-6
-0.200, -3.112e-6
-0.201, -3.112e-6
-0.202, -3.110e-6
-0.203, -3.115e-6
-0.204, -3.110e-6
-0.205, -3.115e-6
-0.206, -3.120e-6
-0.207, -3.128e-6
-0.208, -3.133e-6
-0.209, -3.136e-6
-0.210, -3.139e-6
-0.211, -3.139e-6
-0.212, -3.148e-6
-0.213, -3.148e-6
-0.214, -3.153e-6
-0.215, -3.157e-6
-0.216, -3.161e-6
-0.217, -3.154e-6
-0.218, -3.166e-6
-0.219, -3.166e-6
-0.220, -3.177e-6
-0.221, -3.175e-6
-0.222, -3.179e-6
-0.223, -3.182e-6
-0.224, -3.185e-6
-0.225, -3.190e-6
-0.226, -3.195e-6
-0.227, -3.197e-6
-0.228, -3.204e-6
-0.229, -3.201e-6
-0.230, -3.219e-6
-0.231, -3.210e-6
-0.232, -3.223e-6
-0.233, -3.216e-6
-0.234, -3.224e-6
-0.235, -3.225e-6
-0.236, -3.231e-6
-0.237, -3.236e-6
-0.238, -3.233e-6
-0.239, -3.243e-6
-0.240, -3.244e-6
-0.241, -3.243e-6
-0.242, -3.248e-6
-0.243, -3.242e-6
-0.244, -3.254e-6
-0.245, -3.259e-6
-0.246, -3.258e-6
-0.247, -3.261e-6
-0.248, -3.270e-6
-0.249, -3.270e-6
-0.250, -3.276e-6
-0.251, -3.273e-6
-0.252, -3.280e-6
-0.253, -3.285e-6
-0.254, -3.282e-6
-0.255, -3.285e-6
-0.256, -3.290e-6
-0.257, -3.293e-6
-0.258, -3.291e-6
-0.259, -3.298e-6
-0.260, -3.301e-6
-0.261, -3.303e-6
-0.262, -3.302e-6
-0.263, -3.304e-6
-0.264, -3.312e-6
-0.265, -3.310e-6
-0.266, -3.314e-6
-0.267, -3.318e-6
-0.268, -3.317e-6
-0.269, -3.325e-6
-0.270, -3.319e-6
-0.271, -3.329e-6
-0.272, -3.327e-6
-0.273, -3.333e-6
-0.274, -3.337e-6
-0.275, -3.337e-6
-0.276, -3.340e-6
-0.277, -3.346e-6
-0.278, -3.339e-6
-0.279, -3.347e-6
-0.280, -3.353e-6
-0.281, -3.359e-6
-0.282, -3.356e-6
-0.283, -3.358e-6
-0.284, -3.359e-6
-0.285, -3.361e-6
-0.286, -3.359e-6
-0.287, -3.366e-6
-0.288, -3.364e-6
-0.289, -3.364e-6
-0.290, -3.366e-6
-0.291, -3.368e-6
-0.292, -3.374e-6
-0.293, -3.372e-6
-0.294, -3.363e-6
-0.295, -3.373e-6
-0.296, -3.378e-6
-0.297, -3.375e-6
-0.298, -3.375e-6
-0.299, -3.377e-6
-0.300, -3.381e-6
-0.301, -3.384e-6
-0.302, -3.378e-6
-0.303, -3.382e-6
-0.304, -3.389e-6
-0.305, -3.383e-6
-0.306, -3.386e-6
-0.307, -3.394e-6
-0.308, -3.391e-6
-0.309, -3.394e-6
-0.310, -3.385e-6
-0.311, -3.393e-6
-0.312, -3.395e-6
-0.313, -3.392e-6
-0.314, -3.391e-6
-0.315, -3.392e-6
-0.316, -3.402e-6
-0.317, -3.393e-6
-0.318, -3.392e-6
-0.319, -3.400e-6
-0.320, -3.385e-6
-0.321, -3.397e-6
-0.322, -3.392e-6
-0.323, -3.394e-6
-0.324, -3.400e-6
-0.325, -3.399e-6
-0.326, -3.393e-6
-0.327, -3.404e-6
-0.328, -3.397e-6
-0.329, -3.402e-6
-0.330, -3.399e-6
-0.331, -3.397e-6
-0.332, -3.411e-6
-0.333, -3.403e-6
-0.334, -3.399e-6
-0.335, -3.406e-6
-0.336, -3.404e-6
-0.337, -3.401e-6
-0.338, -3.401e-6
-0.339, -3.404e-6
-0.340, -3.404e-6
-0.341, -3.407e-6
-0.342, -3.401e-6
-0.343, -3.402e-6
-0.344, -3.406e-6
-0.345, -3.397e-6
-0.346, -3.402e-6
-0.347, -3.402e-6
-0.348, -3.406e-6
-0.349, -3.406e-6
-0.350, -3.401e-6
-0.351, -3.406e-6
-0.352, -3.403e-6
-0.353, -3.404e-6
-0.354, -3.403e-6
-0.355, -3.404e-6
-0.356, -3.409e-6
-0.357, -3.408e-6
-0.358, -3.402e-6
-0.359, -3.404e-6
-0.360, -3.407e-6
-0.361, -3.408e-6
-0.362, -3.408e-6
-0.363, -3.403e-6
-0.364, -3.413e-6
-0.365, -3.407e-6
-0.366, -3.407e-6
-0.367, -3.409e-6
-0.368, -3.408e-6
-0.369, -3.410e-6
-0.370, -3.409e-6
-0.371, -3.398e-6
-0.372, -3.414e-6
-0.373, -3.409e-6
-0.374, -3.407e-6
-0.375, -3.411e-6
-0.376, -3.410e-6
-0.377, -3.412e-6
-0.378, -3.411e-6
-0.379, -3.412e-6
-0.380, -3.416e-6
-0.381, -3.417e-6
-0.382, -3.410e-6
-0.383, -3.416e-6
-0.384, -3.428e-6
-0.385, -3.419e-6
-0.386, -3.418e-6
-0.387, -3.413e-6
-0.388, -3.423e-6
-0.389, -3.420e-6
-0.390, -3.416e-6
-0.391, -3.422e-6
-0.392, -3.421e-6
-0.393, -3.421e-6
-0.394, -3.419e-6
-0.395, -3.418e-6
-0.396, -3.419e-6
-0.397, -3.422e-6
-0.398, -3.416e-6
-0.399, -3.425e-6
-0.400, -3.427e-6
-0.401, -3.425e-6
-0.402, -3.425e-6
-0.403, -3.421e-6
-0.404, -3.432e-6
-0.405, -3.424e-6
-0.406, -3.422e-6
-0.407, -3.432e-6
-0.408, -3.425e-6
-0.409, -3.396e-6
-0.410, -3.415e-6
-0.411, -3.425e-6
-0.412, -3.426e-6
-0.413, -3.429e-6
-0.414, -3.422e-6
-0.415, -3.424e-6
-0.416, -3.429e-6
-0.417, -3.427e-6
-0.418, -3.427e-6
-0.419, -3.425e-6
-0.420, -3.432e-6
-0.421, -3.430e-6
-0.422, -3.421e-6
-0.423, -3.425e-6
-0.424, -3.436e-6
-0.425, -3.423e-6
-0.426, -3.428e-6
-0.427, -3.425e-6
-0.428, -3.433e-6
-0.429, -3.428e-6
-0.430, -3.425e-6
-0.431, -3.436e-6
-0.432, -3.431e-6
-0.433, -3.428e-6
-0.434, -3.432e-6
-0.435, -3.445e-6
-0.436, -3.441e-6
-0.437, -3.432e-6
-0.438, -3.430e-6
-0.439, -3.433e-6
-0.440, -3.433e-6
-0.441, -3.434e-6
-0.442, -3.434e-6
-0.443, -3.431e-6
-0.444, -3.440e-6
-0.445, -3.437e-6
-0.446, -3.433e-6
-0.447, -3.434e-6
-0.448, -3.422e-6
-0.449, -3.429e-6
-0.450, -3.431e-6
-0.451, -3.435e-6
-0.452, -3.435e-6
-0.453, -3.434e-6
-0.454, -3.428e-6
-0.455, -3.430e-6
-0.456, -3.439e-6
-0.457, -3.432e-6
-0.458, -3.429e-6
-0.459, -3.431e-6
-0.460, -3.434e-6
-0.461, -3.432e-6
-0.462, -3.430e-6
-0.463, -3.435e-6
-0.464, -3.437e-6
-0.465, -3.432e-6
-0.466, -3.431e-6
-0.467, -3.429e-6
-0.468, -3.436e-6
-0.469, -3.433e-6
-0.470, -3.423e-6
-0.471, -3.440e-6
-0.472, -3.436e-6
-0.473, -3.419e-6
-0.474, -3.429e-6
-0.475, -3.429e-6
-0.476, -3.436e-6
-0.477, -3.433e-6
-0.478, -3.428e-6
-0.479, -3.433e-6
-0.480, -3.432e-6
-0.481, -3.433e-6
-0.482, -3.429e-6
-0.483, -3.427e-6
-0.484, -3.437e-6
-0.485, -3.433e-6
-0.486, -3.441e-6
-0.487, -3.438e-6
-0.488, -3.436e-6
-0.489, -3.432e-6
-0.490, -3.431e-6
-0.491, -3.433e-6
-0.492, -3.436e-6
-0.493, -3.434e-6
-0.494, -3.430e-6
-0.495, -3.434e-6
-0.496, -3.440e-6
-0.497, -3.429e-6
-0.498, -3.434e-6
-0.499, -3.424e-6
-0.500, -3.433e-6
-0.501, -3.433e-6
-0.502, -3.432e-6
-0.503, -3.437e-6
-0.504, -3.436e-6
-0.505, -3.434e-6
-0.506, -3.435e-6
-0.507, -3.432e-6
-0.508, -3.437e-6
-0.509, -3.440e-6
-0.510, -3.430e-6
-0.511, -3.439e-6
-0.512, -3.452e-6
-0.513, -3.439e-6
-0.514, -3.439e-6
-0.515, -3.437e-6
-0.516, -3.445e-6
-0.517, -3.438e-6
-0.518, -3.440e-6
-0.519, -3.440e-6
-0.520, -3.448e-6
-0.521, -3.441e-6
-0.522, -3.439e-6
-0.523, -3.440e-6
-0.524, -3.443e-6
-0.525, -3.439e-6
-0.526, -3.442e-6
-0.527, -3.443e-6
-0.528, -3.447e-6
-0.529, -3.446e-6
-0.530, -3.443e-6
-0.531, -3.445e-6
-0.532, -3.450e-6
-0.533, -3.450e-6
-0.534, -3.448e-6
-0.535, -3.448e-6
-0.536, -3.455e-6
-0.537, -3.463e-6
-0.538, -3.454e-6
-0.539, -3.455e-6
-0.540, -3.459e-6
-0.541, -3.460e-6
-0.542, -3.458e-6
-0.543, -3.456e-6
-0.544, -3.463e-6
-0.545, -3.460e-6
-0.546, -3.460e-6
-0.547, -3.461e-6
-0.548, -3.464e-6
-0.549, -3.467e-6
-0.550, -3.451e-6
-0.551, -3.466e-6
-0.552, -3.469e-6
-0.553, -3.471e-6
-0.554, -3.464e-6
-0.555, -3.469e-6
-0.556, -3.476e-6
-0.557, -3.478e-6
-0.558, -3.470e-6
-0.559, -3.473e-6
-0.560, -3.480e-6
-0.561, -3.482e-6
-0.562, -3.480e-6
-0.563, -3.476e-6
-0.564, -3.483e-6
-0.565, -3.482e-6
-0.566, -3.486e-6
-0.567, -3.484e-6
-0.568, -3.487e-6
-0.569, -3.486e-6
-0.570, -3.491e-6
-0.571, -3.493e-6
-0.572, -3.498e-6
-0.573, -3.493e-6
-0.574, -3.491e-6
-0.575, -3.503e-6
-0.576, -3.490e-6
-0.577, -3.496e-6
-0.578, -3.499e-6
-0.579, -3.498e-6
-0.580, -3.511e-6
-0.581, -3.505e-6
-0.582, -3.507e-6
-0.583, -3.511e-6
-0.584, -3.509e-6
-0.585, -3.511e-6
-0.586, -3.515e-6
-0.587, -3.513e-6
-0.588, -3.527e-6
-0.589, -3.527e-6
-0.590, -3.521e-6
-0.591, -3.527e-6
-0.592, -3.524e-6
-0.593, -3.523e-6
-0.594, -3.529e-6
-0.595, -3.525e-6
-0.596, -3.538e-6
-0.597, -3.535e-6
-0.598, -3.526e-6
-0.599, -3.540e-6
-0.600, -3.541e-6
-0.601, -3.535e-6
-0.602, -3.537e-6
-0.603, -3.542e-6
-0.604, -3.545e-6
-0.605, -3.549e-6
-0.606, -3.545e-6
-0.607, -3.555e-6
-0.608, -3.552e-6
-0.609, -3.554e-6
-0.610, -3.557e-6
-0.611, -3.557e-6
-0.612, -3.568e-6
-0.613, -3.564e-6
-0.614, -3.535e-6
-0.615, -3.562e-6
-0.616, -3.569e-6
-0.617, -3.567e-6
-0.618, -3.578e-6
-0.619, -3.569e-6
-0.620, -3.578e-6
-0.621, -3.584e-6
-0.622, -3.580e-6
-0.623, -3.588e-6
-0.624, -3.586e-6
-0.625, -3.593e-6
-0.626, -3.593e-6
-0.627, -3.584e-6
-0.628, -3.599e-6
-0.629, -3.593e-6
-0.630, -3.599e-6
-0.631, -3.602e-6
-0.632, -3.607e-6
-0.633, -3.606e-6
-0.634, -3.612e-6
-0.635, -3.612e-6
-0.636, -3.619e-6
-0.637, -3.619e-6
-0.638, -3.615e-6
-0.639, -3.623e-6
-0.640, -3.641e-6
-0.641, -3.630e-6
-0.642, -3.628e-6
-0.643, -3.631e-6
-0.644, -3.636e-6
-0.645, -3.637e-6
-0.646, -3.637e-6
-0.647, -3.646e-6
-0.648, -3.648e-6
-0.649, -3.646e-6
-0.650, -3.648e-6
-0.651, -3.647e-6
-0.652, -3.649e-6
-0.653, -3.654e-6
-0.654, -3.654e-6
-0.655, -3.665e-6
-0.656, -3.664e-6
-0.657, -3.670e-6
-0.658, -3.665e-6
-0.659, -3.669e-6
-0.660, -3.680e-6
-0.661, -3.678e-6
-0.662, -3.678e-6
-0.663, -3.685e-6
-0.664, -3.690e-6
-0.665, -3.684e-6
-0.666, -3.686e-6
-0.667, -3.696e-6
-0.668, -3.699e-6
-0.669, -3.702e-6
-0.670, -3.701e-6
-0.671, -3.707e-6
-0.672, -3.711e-6
-0.673, -3.710e-6
-0.674, -3.716e-6
-0.675, -3.717e-6
-0.676, -3.726e-6
-0.677, -3.729e-6
-0.678, -3.716e-6
-0.679, -3.727e-6
-0.680, -3.735e-6
-0.681, -3.737e-6
-0.682, -3.739e-6
-0.683, -3.742e-6
-0.684, -3.748e-6
-0.685, -3.750e-6
-0.686, -3.748e-6
-0.687, -3.753e-6
-0.688, -3.760e-6
-0.689, -3.760e-6
-0.690, -3.764e-6
-0.691, -3.778e-6
-0.692, -3.781e-6
-0.693, -3.776e-6
-0.694, -3.773e-6
-0.695, -3.792e-6
-0.696, -3.779e-6
-0.697, -3.789e-6
-0.698, -3.792e-6
-0.699, -3.791e-6
-0.700, -3.802e-6
-0.701, -3.805e-6
-0.702, -3.806e-6
-0.703, -3.809e-6
-0.704, -3.805e-6
-0.705, -3.818e-6
-0.706, -3.822e-6
-0.707, -3.826e-6
-0.708, -3.832e-6
-0.709, -3.838e-6
-0.710, -3.835e-6
-0.711, -3.847e-6
-0.712, -3.853e-6
-0.713, -3.857e-6
-0.714, -3.855e-6
-0.715, -3.865e-6
-0.716, -3.877e-6
-0.717, -3.880e-6
-0.718, -3.877e-6
-0.719, -3.884e-6
-0.720, -3.890e-6
-0.721, -3.891e-6
-0.722, -3.899e-6
-0.723, -3.896e-6
-0.724, -3.912e-6
-0.725, -3.913e-6
-0.726, -3.922e-6
-0.727, -3.921e-6
-0.728, -3.934e-6
-0.729, -3.924e-6
-0.730, -3.943e-6
-0.731, -3.944e-6
-0.732, -3.960e-6
-0.733, -3.961e-6
-0.734, -3.968e-6
-0.735, -3.977e-6
-0.736, -3.983e-6
-0.737, -3.989e-6
-0.738, -3.995e-6
-0.739, -4.004e-6
-0.740, -4.014e-6
-0.741, -4.019e-6
-0.742, -4.036e-6
-0.743, -4.038e-6
-0.744, -4.044e-6
-0.745, -4.050e-6
-0.746, -4.057e-6
-0.747, -4.065e-6
-0.748, -4.079e-6
-0.749, -4.081e-6
-0.750, -4.083e-6
-0.751, -4.097e-6
-0.752, -4.112e-6
-0.753, -4.120e-6
-0.754, -4.121e-6
-0.755, -4.122e-6
-0.756, -4.151e-6
-0.757, -4.156e-6
-0.758, -4.166e-6
-0.759, -4.182e-6
-0.760, -4.195e-6
-0.761, -4.202e-6
-0.762, -4.218e-6
-0.763, -4.231e-6
-0.764, -4.245e-6
-0.765, -4.258e-6
-0.766, -4.264e-6
-0.767, -4.286e-6
-0.768, -4.294e-6
-0.769, -4.308e-6
-0.770, -4.326e-6
-0.771, -4.341e-6
-0.772, -4.364e-6
-0.773, -4.376e-6
-0.774, -4.387e-6
-0.775, -4.410e-6
-0.776, -4.428e-6
-0.777, -4.444e-6
-0.778, -4.461e-6
-0.779, -4.477e-6
-0.780, -4.489e-6
-0.781, -4.509e-6
-0.782, -4.531e-6
-0.783, -4.546e-6
-0.784, -4.572e-6
-0.785, -4.597e-6
-0.786, -4.618e-6
-0.787, -4.634e-6
-0.788, -4.666e-6
-0.789, -4.695e-6
-0.790, -4.710e-6
-0.791, -4.733e-6
-0.792, -4.766e-6
-0.793, -4.793e-6
-0.794, -4.815e-6
-0.795, -4.841e-6
-0.796, -4.871e-6
-0.797, -4.892e-6
-0.798, -4.927e-6
-0.799, -4.957e-6
-0.800, -4.982e-6
-0.801, -5.016e-6
-0.802, -5.049e-6
-0.803, -5.073e-6
-0.804, -5.121e-6
-0.805, -5.140e-6
-0.806, -5.164e-6
-0.807, -5.208e-6
-0.808, -5.244e-6
-0.809, -5.281e-6
-0.810, -5.323e-6
-0.811, -5.354e-6
-0.812, -5.404e-6
-0.813, -5.441e-6
-0.814, -5.479e-6
-0.815, -5.515e-6
-0.816, -5.561e-6
-0.817, -5.605e-6
-0.818, -5.647e-6
-0.819, -5.661e-6
-0.820, -5.740e-6
-0.821, -5.783e-6
-0.822, -5.828e-6
-0.823, -5.880e-6
-0.824, -5.935e-6
-0.825, -5.973e-6
-0.826, -6.029e-6
-0.827, -6.084e-6
-0.828, -6.149e-6
-0.829, -6.201e-6
-0.830, -6.260e-6
-0.831, -6.314e-6
-0.832, -6.358e-6
-0.833, -6.431e-6
-0.834, -6.494e-6
-0.835, -6.564e-6
-0.836, -6.641e-6
-0.837, -6.697e-6
-0.838, -6.768e-6
-0.839, -6.845e-6
-0.840, -6.917e-6
-0.841, -6.994e-6
-0.842, -7.083e-6
-0.843, -7.150e-6
-0.844, -7.261e-6
-0.845, -7.349e-6
-0.846, -7.416e-6
-0.847, -7.516e-6
-0.848, -7.610e-6
-0.849, -7.693e-6
-0.850, -7.810e-6
-0.851, -7.892e-6
-0.852, -7.998e-6
-0.853, -8.110e-6
-0.854, -8.212e-6
-0.855, -8.326e-6
-0.856, -8.450e-6
-0.857, -8.545e-6
-0.858, -8.659e-6
-0.859, -8.790e-6
-0.860, -8.941e-6
-0.861, -9.047e-6
-0.862, -9.184e-6
-0.863, -9.330e-6
-0.864, -9.460e-6
-0.865, -9.606e-6
-0.866, -9.750e-6
-0.867, -9.895e-6
-0.868, -1.006e-5
-0.869, -1.021e-5
-0.870, -1.035e-5
-0.871, -1.053e-5
-0.872, -1.069e-5
-0.873, -1.086e-5
-0.874, -1.103e-5
-0.875, -1.121e-5
-0.876, -1.139e-5
-0.877, -1.156e-5
-0.878, -1.175e-5
-0.879, -1.194e-5
-0.880, -1.213e-5
-0.881, -1.233e-5
-0.882, -1.253e-5
-0.883, -1.264e-5
-0.884, -1.289e-5
-0.885, -1.311e-5
-0.886, -1.328e-5
-0.887, -1.351e-5
-0.888, -1.373e-5
-0.889, -1.393e-5
-0.890, -1.417e-5
-0.891, -1.436e-5
-0.892, -1.460e-5
-0.893, -1.484e-5
-0.894, -1.504e-5
-0.895, -1.527e-5
-0.896, -1.557e-5
-0.897, -1.576e-5
-0.898, -1.598e-5
-0.899, -1.617e-5
-0.900, -1.643e-5
-0.901, -1.666e-5
-0.902, -1.688e-5
-0.903, -1.712e-5
-0.904, -1.733e-5
-0.905, -1.756e-5
-0.906, -1.777e-5
-0.907, -1.801e-5
-0.908, -1.823e-5
-0.909, -1.839e-5
-0.910, -1.866e-5
-0.911, -1.887e-5
-0.912, -1.910e-5
-0.913, -1.932e-5
-0.914, -1.954e-5
-0.915, -1.973e-5
-0.916, -1.997e-5
-0.917, -2.018e-5
-0.918, -2.036e-5
-0.919, -2.058e-5
-0.920, -2.081e-5
-0.921, -2.103e-5
-0.922, -2.122e-5
-0.923, -2.140e-5
-0.924, -2.159e-5
-0.925, -2.178e-5
-0.926, -2.196e-5
-0.927, -2.215e-5
-0.928, -2.229e-5
-0.929, -2.251e-5
-0.930, -2.271e-5
-0.931, -2.282e-5
-0.932, -2.302e-5
-0.933, -2.321e-5
-0.934, -2.330e-5
-0.935, -2.350e-5
-0.936, -2.366e-5
-0.937, -2.386e-5
-0.938, -2.400e-5
-0.939, -2.416e-5
-0.940, -2.431e-5
-0.941, -2.448e-5
-0.942, -2.462e-5
-0.943, -2.481e-5
-0.944, -2.495e-5
-0.945, -2.511e-5
-0.946, -2.527e-5
-0.947, -2.548e-5
-0.948, -2.562e-5
-0.949, -2.576e-5
-0.950, -2.587e-5
-0.951, -2.605e-5
-0.952, -2.622e-5
-0.953, -2.633e-5
-0.954, -2.647e-5
-0.955, -2.662e-5
-0.956, -2.681e-5
-0.957, -2.699e-5
-0.958, -2.710e-5
-0.959, -2.726e-5
-0.960, -2.736e-5
-0.961, -2.759e-5
-0.962, -2.774e-5
-0.963, -2.789e-5
-0.964, -2.808e-5
-0.965, -2.824e-5
-0.966, -2.838e-5
-0.967, -2.854e-5
-0.968, -2.872e-5
-0.969, -2.890e-5
-0.970, -2.903e-5
-0.971, -2.921e-5
-0.972, -2.939e-5
-0.973, -2.952e-5
-0.974, -2.969e-5
-0.975, -2.988e-5
-0.976, -3.003e-5
-0.977, -3.021e-5
-0.978, -3.038e-5
-0.979, -3.050e-5
-0.980, -3.070e-5
-0.981, -3.086e-5
-0.982, -3.101e-5
-0.983, -3.117e-5
-0.984, -3.134e-5
-0.985, -3.141e-5
-0.986, -3.156e-5
-0.987, -3.172e-5
-0.988, -3.189e-5
-0.989, -3.202e-5
-0.990, -3.216e-5
-0.991, -3.229e-5
-0.992, -3.241e-5
-0.993, -3.253e-5
-0.994, -3.268e-5
-0.995, -3.277e-5
-0.996, -3.293e-5
-0.997, -3.299e-5
-0.998, -3.313e-5
-0.999, -3.323e-5
-1.000, -3.328e-5
-1.001, -3.338e-5
-1.002, -3.345e-5
-1.003, -3.349e-5
-1.004, -3.358e-5
-1.005, -3.361e-5
-1.006, -3.364e-5
-1.007, -3.371e-5
-1.008, -3.376e-5
-1.009, -3.380e-5
-1.010, -3.379e-5
-1.011, -3.377e-5
-1.012, -3.382e-5
-1.013, -3.383e-5
-1.014, -3.381e-5
-1.015, -3.384e-5
-1.016, -3.383e-5
-1.017, -3.381e-5
-1.018, -3.379e-5
-1.019, -3.379e-5
-1.020, -3.375e-5
-1.021, -3.373e-5
-1.022, -3.366e-5
-1.023, -3.362e-5
-1.024, -3.345e-5
-1.025, -3.345e-5
-1.026, -3.343e-5
-1.027, -3.339e-5
-1.028, -3.334e-5
-1.029, -3.326e-5
-1.030, -3.319e-5
-1.031, -3.314e-5
-1.032, -3.305e-5
-1.033, -3.297e-5
-1.034, -3.288e-5
-1.035, -3.279e-5
-1.036, -3.270e-5
-1.037, -3.261e-5
-1.038, -3.251e-5
-1.039, -3.241e-5
-1.040, -3.233e-5
-1.041, -3.224e-5
-1.042, -3.214e-5
-1.043, -3.202e-5
-1.044, -3.195e-5
-1.045, -3.184e-5
-1.046, -3.171e-5
-1.047, -3.163e-5
-1.048, -3.152e-5
-1.049, -3.144e-5
-1.050, -3.132e-5
-1.051, -3.120e-5
-1.052, -3.109e-5
-1.053, -3.098e-5
-1.054, -3.086e-5
-1.055, -3.075e-5
-1.056, -3.064e-5
-1.057, -3.054e-5
-1.058, -3.043e-5
-1.059, -3.032e-5
-1.060, -3.021e-5
-1.061, -3.010e-5
-1.062, -2.995e-5
-1.063, -2.987e-5
-1.064, -2.976e-5
-1.065, -2.966e-5
-1.066, -2.955e-5
-1.067, -2.944e-5
-1.068, -2.934e-5
-1.069, -2.923e-5
-1.070, -2.913e-5
-1.071, -2.902e-5
-1.072, -2.892e-5
-1.073, -2.882e-5
-1.074, -2.871e-5
-1.075, -2.860e-5
-1.076, -2.851e-5
-1.077, -2.840e-5
-1.078, -2.831e-5
-1.079, -2.821e-5
-1.080, -2.812e-5
-1.081, -2.800e-5
-1.082, -2.792e-5
-1.083, -2.782e-5
-1.084, -2.773e-5
-1.085, -2.764e-5
-1.086, -2.753e-5
-1.087, -2.745e-5
-1.088, -2.732e-5
-1.089, -2.724e-5
-1.090, -2.716e-5
-1.091, -2.706e-5
-1.092, -2.699e-5
-1.093, -2.689e-5
-1.094, -2.680e-5
-1.095, -2.673e-5
-1.096, -2.663e-5
-1.097, -2.654e-5
-1.098, -2.645e-5
-1.099, -2.637e-5
-1.100, -2.630e-5
-1.101, -2.623e-5
-1.102, -2.613e-5
-1.103, -2.605e-5
-1.104, -2.597e-5
-1.105, -2.589e-5
-1.106, -2.581e-5
-1.107, -2.573e-5
-1.108, -2.566e-5
-1.109, -2.558e-5
-1.110, -2.550e-5
-1.111, -2.543e-5
-1.112, -2.536e-5
-1.113, -2.527e-5
-1.114, -2.520e-5
-1.115, -2.513e-5
-1.116, -2.506e-5
-1.117, -2.499e-5
-1.118, -2.492e-5
-1.119, -2.485e-5
-1.120, -2.479e-5
-1.121, -2.471e-5
-1.122, -2.465e-5
-1.123, -2.457e-5
-1.124, -2.452e-5
-1.125, -2.444e-5
-1.126, -2.439e-5
-1.127, -2.432e-5
-1.128, -2.426e-5
-1.129, -2.419e-5
-1.130, -2.413e-5
-1.131, -2.406e-5
-1.132, -2.401e-5
-1.133, -2.395e-5
-1.134, -2.389e-5
-1.135, -2.382e-5
-1.136, -2.377e-5
-1.137, -2.371e-5
-1.138, -2.365e-5
-1.139, -2.358e-5
-1.140, -2.353e-5
-1.141, -2.348e-5
-1.142, -2.342e-5
-1.143, -2.336e-5
-1.144, -2.331e-5
-1.145, -2.326e-5
-1.146, -2.321e-5
-1.147, -2.315e-5
-1.148, -2.310e-5
-1.149, -2.304e-5
-1.150, -2.299e-5
-1.151, -2.295e-5
-1.152, -2.291e-5
-1.153, -2.285e-5
-1.154, -2.279e-5
-1.155, -2.275e-5
-1.156, -2.271e-5
-1.157, -2.265e-5
-1.158, -2.260e-5
-1.159, -2.256e-5
-1.160, -2.251e-5
-1.161, -2.246e-5
-1.162, -2.242e-5
-1.163, -2.237e-5
-1.164, -2.233e-5
-1.165, -2.228e-5
-1.166, -2.224e-5
-1.167, -2.220e-5
-1.168, -2.216e-5
-1.169, -2.211e-5
-1.170, -2.207e-5
-1.171, -2.203e-5
-1.172, -2.199e-5
-1.173, -2.195e-5
-1.174, -2.190e-5
-1.175, -2.187e-5
-1.176, -2.183e-5
-1.177, -2.179e-5
-1.178, -2.175e-5
-1.179, -2.171e-5
-1.180, -2.168e-5
-1.181, -2.163e-5
-1.182, -2.160e-5
-1.183, -2.156e-5
-1.184, -2.153e-5
-1.185, -2.149e-5
-1.186, -2.145e-5
-1.187, -2.142e-5
-1.188, -2.139e-5
-1.189, -2.135e-5
-1.190, -2.131e-5
-1.191, -2.128e-5
-1.192, -2.125e-5
-1.193, -2.121e-5
-1.194, -2.118e-5
-1.195, -2.115e-5
-1.196, -2.111e-5
-1.197, -2.108e-5
-1.198, -2.105e-5
-1.199, -2.102e-5
-1.200, -2.099e-5
-1.201, -2.095e-5
-1.202, -2.092e-5
-1.203, -2.090e-5
-1.204, -2.086e-5
-1.205, -2.083e-5
-1.206, -2.080e-5
-1.207, -2.077e-5
-1.208, -2.074e-5
-1.209, -2.071e-5
-1.210, -2.068e-5
-1.211, -2.065e-5
-1.212, -2.062e-5
-1.213, -2.059e-5
-1.214, -2.056e-5
-1.215, -2.053e-5
-1.216, -2.051e-5
-1.217, -2.048e-5
-1.218, -2.046e-5
-1.219, -2.042e-5
-1.220, -2.040e-5
-1.221, -2.038e-5
-1.222, -2.034e-5
-1.223, -2.032e-5
-1.224, -2.030e-5
-1.225, -2.028e-5
-1.226, -2.024e-5
-1.227, -2.022e-5
-1.228, -2.018e-5
-1.229, -2.016e-5
-1.230, -2.013e-5
-1.231, -2.012e-5
-1.232, -2.009e-5
-1.233, -2.007e-5
-1.234, -2.005e-5
-1.235, -2.001e-5
-1.236, -2.000e-5
-1.237, -1.998e-5
-1.238, -1.995e-5
-1.239, -1.993e-5
-1.240, -1.991e-5
-1.241, -1.987e-5
-1.242, -1.985e-5
-1.243, -1.983e-5
-1.244, -1.982e-5
-1.245, -1.979e-5
-1.246, -1.977e-5
-1.247, -1.975e-5
-1.248, -1.972e-5
-1.249, -1.970e-5
-1.250, -1.968e-5
-1.251, -1.966e-5
-1.252, -1.964e-5
-1.253, -1.962e-5
-1.254, -1.961e-5
-1.255, -1.958e-5
-1.256, -1.957e-5
-1.257, -1.953e-5
-1.258, -1.952e-5
-1.259, -1.950e-5
-1.260, -1.948e-5
-1.261, -1.946e-5
-1.262, -1.943e-5
-1.263, -1.942e-5
-1.264, -1.940e-5
-1.265, -1.938e-5
-1.266, -1.936e-5
-1.267, -1.933e-5
-1.268, -1.932e-5
-1.269, -1.930e-5
-1.270, -1.928e-5
-1.271, -1.926e-5
-1.272, -1.925e-5
-1.273, -1.922e-5
-1.274, -1.920e-5
-1.275, -1.918e-5
-1.276, -1.917e-5
-1.277, -1.916e-5
-1.278, -1.913e-5
-1.279, -1.912e-5
-1.280, -1.910e-5
-1.281, -1.908e-5
-1.282, -1.906e-5
-1.283, -1.904e-5
-1.284, -1.903e-5
-1.285, -1.901e-5
-1.286, -1.899e-5
-1.287, -1.898e-5
-1.288, -1.896e-5
-1.289, -1.894e-5
-1.290, -1.892e-5
-1.291, -1.891e-5
-1.292, -1.889e-5
-1.293, -1.888e-5
-1.294, -1.885e-5
-1.295, -1.884e-5
-1.296, -1.883e-5
-1.297, -1.881e-5
-1.298, -1.879e-5
-1.299, -1.877e-5
-1.300, -1.876e-5
-1.301, -1.874e-5
-1.302, -1.872e-5
-1.303, -1.871e-5
-1.304, -1.870e-5
-1.305, -1.869e-5
-1.306, -1.867e-5
-1.307, -1.865e-5
-1.308, -1.863e-5
-1.309, -1.862e-5
-1.310, -1.860e-5
-1.311, -1.859e-5
-1.312, -1.857e-5
-1.313, -1.856e-5
-1.314, -1.854e-5
-1.315, -1.853e-5
-1.316, -1.852e-5
-1.317, -1.850e-5
-1.318, -1.848e-5
-1.319, -1.847e-5
-1.320, -1.846e-5
-1.321, -1.844e-5
-1.322, -1.843e-5
-1.323, -1.841e-5
-1.324, -1.840e-5
-1.325, -1.839e-5
-1.326, -1.837e-5
-1.327, -1.836e-5
-1.328, -1.835e-5
-1.329, -1.833e-5
-1.330, -1.832e-5
-1.331, -1.831e-5
-1.332, -1.829e-5
-1.333, -1.828e-5
-1.334, -1.826e-5
-1.335, -1.825e-5
-1.336, -1.824e-5
-1.337, -1.822e-5
-1.338, -1.821e-5
-1.339, -1.820e-5
-1.340, -1.819e-5
-1.341, -1.818e-5
-1.342, -1.816e-5
-1.343, -1.815e-5
-1.344, -1.813e-5
-1.345, -1.812e-5
-1.346, -1.811e-5
-1.347, -1.809e-5
-1.348, -1.809e-5
-1.349, -1.807e-5
-1.350, -1.805e-5
-1.351, -1.805e-5
-1.352, -1.804e-5
-1.353, -1.803e-5
-1.354, -1.801e-5
-1.355, -1.800e-5
-1.356, -1.800e-5
-1.357, -1.799e-5
-1.358, -1.797e-5
-1.359, -1.795e-5
-1.360, -1.795e-5
-1.361, -1.794e-5
-1.362, -1.792e-5
-1.363, -1.791e-5
-1.364, -1.790e-5
-1.365, -1.789e-5
-1.366, -1.788e-5
-1.367, -1.787e-5
-1.368, -1.786e-5
-1.369, -1.784e-5
-1.370, -1.783e-5
-1.371, -1.783e-5
-1.372, -1.782e-5
-1.373, -1.780e-5
-1.374, -1.779e-5
-1.375, -1.778e-5
-1.376, -1.777e-5
-1.377, -1.776e-5
-1.378, -1.775e-5
-1.379, -1.774e-5
-1.380, -1.773e-5
-1.381, -1.772e-5
-1.382, -1.771e-5
-1.383, -1.770e-5
-1.384, -1.769e-5
-1.385, -1.768e-5
-1.386, -1.767e-5
-1.387, -1.766e-5
-1.388, -1.765e-5
-1.389, -1.765e-5
-1.390, -1.763e-5
-1.391, -1.763e-5
-1.392, -1.762e-5
-1.393, -1.761e-5
-1.394, -1.760e-5
-1.395, -1.758e-5
-1.396, -1.758e-5
-1.397, -1.757e-5
-1.398, -1.756e-5
-1.399, -1.755e-5
-1.400, -1.755e-5
-1.401, -1.754e-5
-1.402, -1.753e-5
-1.403, -1.752e-5
-1.404, -1.752e-5
-1.405, -1.750e-5
-1.406, -1.749e-5
-1.407, -1.749e-5
-1.408, -1.749e-5
-1.409, -1.747e-5
-1.410, -1.746e-5
-1.411, -1.745e-5
-1.412, -1.744e-5
-1.413, -1.744e-5
-1.414, -1.743e-5
-1.415, -1.742e-5
-1.416, -1.741e-5
-1.417, -1.740e-5
-1.418, -1.740e-5
-1.419, -1.739e-5
-1.420, -1.738e-5
-1.421, -1.737e-5
-1.422, -1.736e-5
-1.423, -1.736e-5
-1.424, -1.735e-5
-1.425, -1.734e-5
-1.426, -1.733e-5
-1.427, -1.732e-5
-1.428, -1.732e-5
-1.429, -1.731e-5
-1.430, -1.730e-5
-1.431, -1.729e-5
-1.432, -1.729e-5
-1.433, -1.726e-5
-1.434, -1.726e-5
-1.435, -1.726e-5
-1.436, -1.726e-5
-1.437, -1.725e-5
-1.438, -1.724e-5
-1.439, -1.723e-5
-1.440, -1.722e-5
-1.441, -1.722e-5
-1.442, -1.721e-5
-1.443, -1.721e-5
-1.444, -1.720e-5
-1.445, -1.719e-5
-1.446, -1.718e-5
-1.447, -1.717e-5
-1.448, -1.717e-5
-1.449, -1.716e-5
-1.450, -1.716e-5
-1.451, -1.715e-5
-1.452, -1.715e-5
-1.453, -1.714e-5
-1.454, -1.713e-5
-1.455, -1.713e-5
-1.456, -1.712e-5
-1.457, -1.711e-5
-1.458, -1.710e-5
-1.459, -1.711e-5
-1.460, -1.709e-5
-1.461, -1.709e-5
-1.462, -1.708e-5
-1.463, -1.707e-5
-1.464, -1.707e-5
-1.465, -1.706e-5
-1.466, -1.705e-5
-1.467, -1.704e-5
-1.468, -1.704e-5
-1.469, -1.704e-5
-1.470, -1.703e-5
-1.471, -1.702e-5
-1.472, -1.701e-5
-1.473, -1.701e-5
-1.474, -1.701e-5
-1.475, -1.700e-5
-1.476, -1.700e-5
-1.477, -1.699e-5
-1.478, -1.698e-5
-1.479, -1.698e-5
-1.480, -1.697e-5
-1.481, -1.697e-5
-1.482, -1.696e-5
-1.483, -1.695e-5
-1.484, -1.695e-5
-1.485, -1.694e-5
-1.486, -1.694e-5
-1.487, -1.693e-5
-1.488, -1.693e-5
-1.489, -1.692e-5
-1.490, -1.692e-5
-1.491, -1.691e-5
-1.492, -1.691e-5
-1.493, -1.690e-5
-1.494, -1.690e-5
-1.495, -1.689e-5
-1.496, -1.689e-5
-1.497, -1.687e-5
-1.498, -1.687e-5
-1.499, -1.687e-5
-1.500, -1.687e-5
-1.501, -1.686e-5
-1.502, -1.685e-5
-1.503, -1.685e-5
-1.504, -1.685e-5
-1.505, -1.683e-5
-1.506, -1.684e-5
-1.507, -1.683e-5
-1.508, -1.683e-5
-1.509, -1.682e-5
-1.510, -1.682e-5
-1.511, -1.681e-5
-1.512, -1.681e-5
-1.513, -1.680e-5
-1.514, -1.680e-5
-1.515, -1.679e-5
-1.516, -1.679e-5
-1.517, -1.678e-5
-1.518, -1.678e-5
-1.519, -1.678e-5
-1.520, -1.677e-5
-1.521, -1.677e-5
-1.522, -1.676e-5
-1.523, -1.675e-5
-1.524, -1.675e-5
-1.525, -1.675e-5
-1.526, -1.674e-5
-1.527, -1.674e-5
-1.528, -1.674e-5
-1.529, -1.673e-5
-1.530, -1.673e-5
-1.531, -1.672e-5
-1.532, -1.672e-5
-1.533, -1.672e-5
-1.534, -1.671e-5
-1.535, -1.671e-5
-1.536, -1.671e-5
-1.537, -1.670e-5
-1.538, -1.670e-5
-1.539, -1.669e-5
-1.540, -1.670e-5
-1.541, -1.669e-5
-1.542, -1.668e-5
-1.543, -1.668e-5
-1.544, -1.668e-5
-1.545, -1.667e-5
-1.546, -1.667e-5
-1.547, -1.667e-5
-1.548, -1.666e-5
-1.549, -1.666e-5
-1.550, -1.666e-5
-1.551, -1.665e-5
-1.552, -1.665e-5
-1.553, -1.665e-5
-1.554, -1.664e-5
-1.555, -1.664e-5
-1.556, -1.664e-5
-1.557, -1.664e-5
-1.558, -1.663e-5
-1.559, -1.663e-5
-1.560, -1.663e-5
-1.561, -1.663e-5
-1.562, -1.662e-5
-1.563, -1.662e-5
-1.564, -1.662e-5
-1.565, -1.661e-5
-1.566, -1.661e-5
-1.567, -1.661e-5
-1.568, -1.661e-5
-1.569, -1.660e-5
-1.570, -1.660e-5
-1.571, -1.660e-5
-1.572, -1.659e-5
-1.573, -1.659e-5
-1.574, -1.658e-5
-1.575, -1.658e-5
-1.576, -1.658e-5
-1.577, -1.658e-5
-1.578, -1.658e-5
-1.579, -1.658e-5
-1.580, -1.657e-5
-1.581, -1.657e-5
-1.582, -1.657e-5
-1.583, -1.657e-5
-1.584, -1.656e-5
-1.585, -1.656e-5
-1.586, -1.656e-5
-1.587, -1.655e-5
-1.588, -1.655e-5
-1.589, -1.655e-5
-1.590, -1.655e-5
-1.591, -1.655e-5
-1.592, -1.655e-5
-1.593, -1.654e-5
-1.594, -1.654e-5
-1.595, -1.654e-5
-1.596, -1.654e-5
-1.597, -1.654e-5
-1.598, -1.653e-5
-1.599, -1.653e-5
-1.600, -1.652e-5
-1.601, -1.653e-5
-1.602, -1.652e-5
-1.603, -1.652e-5
-1.604, -1.652e-5
-1.605, -1.652e-5
-1.606, -1.651e-5
-1.607, -1.651e-5
-1.608, -1.651e-5
-1.609, -1.651e-5
-1.610, -1.650e-5
-1.611, -1.650e-5
-1.612, -1.651e-5
-1.613, -1.650e-5
-1.614, -1.650e-5
-1.615, -1.650e-5
-1.616, -1.649e-5
-1.617, -1.649e-5
-1.618, -1.649e-5
-1.619, -1.648e-5
-1.620, -1.648e-5
-1.621, -1.648e-5
-1.622, -1.648e-5
-1.623, -1.648e-5
-1.624, -1.648e-5
-1.625, -1.647e-5
-1.626, -1.647e-5
-1.627, -1.646e-5
-1.628, -1.647e-5
-1.629, -1.646e-5
-1.630, -1.646e-5
-1.631, -1.646e-5
-1.632, -1.646e-5
-1.633, -1.645e-5
-1.634, -1.645e-5
-1.635, -1.645e-5
-1.636, -1.645e-5
-1.637, -1.645e-5
-1.638, -1.643e-5
-1.639, -1.644e-5
-1.640, -1.644e-5
-1.641, -1.644e-5
-1.642, -1.643e-5
-1.643, -1.643e-5
-1.644, -1.643e-5
-1.645, -1.643e-5
-1.646, -1.643e-5
-1.647, -1.643e-5
-1.648, -1.643e-5
-1.649, -1.642e-5
-1.650, -1.642e-5
-1.651, -1.642e-5
-1.652, -1.642e-5
-1.653, -1.641e-5
-1.654, -1.641e-5
-1.655, -1.641e-5
-1.656, -1.641e-5
-1.657, -1.641e-5
-1.658, -1.641e-5
-1.659, -1.640e-5
-1.660, -1.640e-5
-1.661, -1.640e-5
-1.662, -1.640e-5
-1.663, -1.640e-5
-1.664, -1.641e-5
-1.665, -1.640e-5
-1.666, -1.639e-5
-1.667, -1.639e-5
-1.668, -1.639e-5
-1.669, -1.639e-5
-1.670, -1.639e-5
-1.671, -1.639e-5
-1.672, -1.638e-5
-1.673, -1.638e-5
-1.674, -1.638e-5
-1.675, -1.638e-5
-1.676, -1.638e-5
-1.677, -1.637e-5
-1.678, -1.637e-5
-1.679, -1.637e-5
-1.680, -1.637e-5
-1.681, -1.637e-5
-1.682, -1.637e-5
-1.683, -1.637e-5
-1.684, -1.637e-5
-1.685, -1.636e-5
-1.686, -1.636e-5
-1.687, -1.636e-5
-1.688, -1.636e-5
-1.689, -1.636e-5
-1.690, -1.636e-5
-1.691, -1.636e-5
-1.692, -1.636e-5
-1.693, -1.636e-5
-1.694, -1.635e-5
-1.695, -1.635e-5
-1.696, -1.635e-5
-1.697, -1.635e-5
-1.698, -1.635e-5
-1.699, -1.635e-5
-1.700, -1.609e-5
-1.699, -1.591e-5
-1.698, -1.582e-5
-1.697, -1.575e-5
-1.696, -1.570e-5
-1.695, -1.565e-5
-1.694, -1.561e-5
-1.693, -1.557e-5
-1.692, -1.553e-5
-1.691, -1.550e-5
-1.690, -1.547e-5
-1.689, -1.545e-5
-1.688, -1.542e-5
-1.687, -1.539e-5
-1.686, -1.537e-5
-1.685, -1.534e-5
-1.684, -1.532e-5
-1.683, -1.530e-5
-1.682, -1.528e-5
-1.681, -1.526e-5
-1.680, -1.524e-5
-1.679, -1.522e-5
-1.678, -1.520e-5
-1.677, -1.519e-5
-1.676, -1.517e-5
-1.675, -1.515e-5
-1.674, -1.514e-5
-1.673, -1.512e-5
-1.672, -1.510e-5
-1.671, -1.509e-5
-1.670, -1.507e-5
-1.669, -1.506e-5
-1.668, -1.505e-5
-1.667, -1.503e-5
-1.666, -1.502e-5
-1.665, -1.500e-5
-1.664, -1.498e-5
-1.663, -1.498e-5
-1.662, -1.497e-5
-1.661, -1.495e-5
-1.660, -1.494e-5
-1.659, -1.493e-5
-1.658, -1.492e-5
-1.657, -1.490e-5
-1.656, -1.489e-5
-1.655, -1.488e-5
-1.654, -1.487e-5
-1.653, -1.486e-5
-1.652, -1.485e-5
-1.651, -1.484e-5
-1.650, -1.483e-5
-1.649, -1.482e-5
-1.648, -1.481e-5
-1.647, -1.480e-5
-1.646, -1.479e-5
-1.645, -1.478e-5
-1.644, -1.477e-5
-1.643, -1.476e-5
-1.642, -1.475e-5
-1.641, -1.474e-5
-1.640, -1.473e-5
-1.639, -1.473e-5
-1.638, -1.472e-5
-1.637, -1.471e-5
-1.636, -1.470e-5
-1.635, -1.469e-5
-1.634, -1.468e-5
-1.633, -1.467e-5
-1.632, -1.467e-5
-1.631, -1.466e-5
-1.630, -1.465e-5
-1.629, -1.464e-5
-1.628, -1.463e-5
-1.627, -1.463e-5
-1.626, -1.462e-5
-1.625, -1.461e-5
-1.624, -1.460e-5
-1.623, -1.460e-5
-1.622, -1.459e-5
-1.621, -1.459e-5
-1.620, -1.458e-5
-1.619, -1.457e-5
-1.618, -1.456e-5
-1.617, -1.456e-5
-1.616, -1.455e-5
-1.615, -1.454e-5
-1.614, -1.453e-5
-1.613, -1.452e-5
-1.612, -1.452e-5
-1.611, -1.451e-5
-1.610, -1.451e-5
-1.609, -1.450e-5
-1.608, -1.450e-5
-1.607, -1.449e-5
-1.606, -1.448e-5
-1.605, -1.448e-5
-1.604, -1.447e-5
-1.603, -1.447e-5
-1.602, -1.446e-5
-1.601, -1.445e-5
-1.600, -1.445e-5
-1.599, -1.444e-5
-1.598, -1.444e-5
-1.597, -1.443e-5
-1.596, -1.443e-5
-1.595, -1.442e-5
-1.594, -1.441e-5
-1.593, -1.441e-5
-1.592, -1.440e-5
-1.591, -1.439e-5
-1.590, -1.439e-5
-1.589, -1.438e-5
-1.588, -1.438e-5
-1.587, -1.437e-5
-1.586, -1.437e-5
-1.585, -1.436e-5
-1.584, -1.436e-5
-1.583, -1.435e-5
-1.582, -1.435e-5
-1.581, -1.434e-5
-1.580, -1.433e-5
-1.579, -1.433e-5
-1.578, -1.432e-5
-1.577, -1.432e-5
-1.576, -1.431e-5
-1.575, -1.431e-5
-1.574, -1.431e-5
-1.573, -1.430e-5
-1.572, -1.429e-5
-1.571, -1.429e-5
-1.570, -1.429e-5
-1.569, -1.428e-5
-1.568, -1.428e-5
-1.567, -1.427e-5
-1.566, -1.427e-5
-1.565, -1.426e-5
-1.564, -1.425e-5
-1.563, -1.425e-5
-1.562, -1.424e-5
-1.561, -1.424e-5
-1.560, -1.424e-5
-1.559, -1.423e-5
-1.558, -1.423e-5
-1.557, -1.423e-5
-1.556, -1.422e-5
-1.555, -1.422e-5
-1.554, -1.421e-5
-1.553, -1.421e-5
-1.552, -1.420e-5
-1.551, -1.420e-5
-1.550, -1.419e-5
-1.549, -1.420e-5
-1.548, -1.419e-5
-1.547, -1.418e-5
-1.546, -1.418e-5
-1.545, -1.417e-5
-1.544, -1.417e-5
-1.543, -1.416e-5
-1.542, -1.416e-5
-1.541, -1.416e-5
-1.540, -1.415e-5
-1.539, -1.415e-5
-1.538, -1.415e-5
-1.537, -1.414e-5
-1.536, -1.413e-5
-1.535, -1.413e-5
-1.534, -1.413e-5
-1.533, -1.413e-5
-1.532, -1.412e-5
-1.531, -1.412e-5
-1.530, -1.411e-5
-1.529, -1.411e-5
-1.528, -1.411e-5
-1.527, -1.410e-5
-1.526, -1.410e-5
-1.525, -1.410e-5
-1.524, -1.409e-5
-1.523, -1.409e-5
-1.522, -1.408e-5
-1.521, -1.408e-5
-1.520, -1.408e-5
-1.519, -1.407e-5
-1.518, -1.407e-5
-1.517, -1.407e-5
-1.516, -1.406e-5
-1.515, -1.406e-5
-1.514, -1.406e-5
-1.513, -1.405e-5
-1.512, -1.405e-5
-1.511, -1.404e-5
-1.510, -1.404e-5
-1.509, -1.404e-5
-1.508, -1.403e-5
-1.507, -1.403e-5
-1.506, -1.403e-5
-1.505, -1.402e-5
-1.504, -1.402e-5
-1.503, -1.402e-5
-1.502, -1.401e-5
-1.501, -1.401e-5
-1.500, -1.401e-5
-1.499, -1.400e-5
-1.498, -1.400e-5
-1.497, -1.400e-5
-1.496, -1.399e-5
-1.495, -1.399e-5
-1.494, -1.399e-5
-1.493, -1.399e-5
-1.492, -1.398e-5
-1.491, -1.398e-5
-1.490, -1.397e-5
-1.489, -1.398e-5
-1.488, -1.397e-5
-1.487, -1.397e-5
-1.486, -1.396e-5
-1.485, -1.396e-5
-1.484, -1.395e-5
-1.483, -1.395e-5
-1.482, -1.395e-5
-1.481, -1.394e-5
-1.480, -1.395e-5
-1.479, -1.394e-5
-1.478, -1.394e-5
-1.477, -1.394e-5
-1.476, -1.393e-5
-1.475, -1.393e-5
-1.474, -1.392e-5
-1.473, -1.392e-5
-1.472, -1.392e-5
-1.471, -1.392e-5
-1.470, -1.391e-5
-1.469, -1.391e-5
-1.468, -1.390e-5
-1.467, -1.390e-5
-1.466, -1.390e-5
-1.465, -1.389e-5
-1.464, -1.389e-5
-1.463, -1.389e-5
-1.462, -1.388e-5
-1.461, -1.389e-5
-1.460, -1.388e-5
-1.459, -1.387e-5
-1.458, -1.387e-5
-1.457, -1.387e-5
-1.456, -1.387e-5
-1.455, -1.386e-5
-1.454, -1.386e-5
-1.453, -1.386e-5
-1.452, -1.385e-5
-1.451, -1.385e-5
-1.450, -1.385e-5
-1.449, -1.385e-5
-1.448, -1.384e-5
-1.447, -1.384e-5
-1.446, -1.384e-5
-1.445, -1.384e-5
-1.444, -1.383e-5
-1.443, -1.383e-5
-1.442, -1.383e-5
-1.441, -1.382e-5
-1.440, -1.382e-5
-1.439, -1.381e-5
-1.438, -1.382e-5
-1.437, -1.381e-5
-1.436, -1.381e-5
-1.435, -1.380e-5
-1.434, -1.381e-5
-1.433, -1.380e-5
-1.432, -1.380e-5
-1.431, -1.379e-5
-1.430, -1.379e-5
-1.429, -1.379e-5
-1.428, -1.379e-5
-1.427, -1.378e-5
-1.426, -1.378e-5
-1.425, -1.378e-5
-1.424, -1.378e-5
-1.423, -1.377e-5
-1.422, -1.377e-5
-1.421, -1.377e-5
-1.420, -1.376e-5
-1.419, -1.376e-5
-1.418, -1.376e-5
-1.417, -1.376e-5
-1.416, -1.376e-5
-1.415, -1.375e-5
-1.414, -1.375e-5
-1.413, -1.375e-5
-1.412, -1.374e-5
-1.411, -1.374e-5
-1.410, -1.374e-5
-1.409, -1.374e-5
-1.408, -1.373e-5
-1.407, -1.373e-5
-1.406, -1.373e-5
-1.405, -1.373e-5
-1.404, -1.372e-5
-1.403, -1.372e-5
-1.402, -1.372e-5
-1.401, -1.372e-5
-1.400, -1.371e-5
-1.399, -1.371e-5
-1.398, -1.371e-5
-1.397, -1.371e-5
-1.396, -1.370e-5
-1.395, -1.370e-5
-1.394, -1.370e-5
-1.393, -1.370e-5
-1.392, -1.369e-5
-1.391, -1.369e-5
-1.390, -1.369e-5
-1.389, -1.369e-5
-1.388, -1.368e-5
-1.387, -1.368e-5
-1.386, -1.368e-5
-1.385, -1.368e-5
-1.384, -1.367e-5
-1.383, -1.367e-5
-1.382, -1.367e-5
-1.381, -1.367e-5
-1.380, -1.366e-5
-1.379, -1.366e-5
-1.378, -1.366e-5
-1.377, -1.366e-5
-1.376, -1.365e-5
-1.375, -1.365e-5
-1.374, -1.365e-5
-1.373, -1.365e-5
-1.372, -1.364e-5
-1.371, -1.364e-5
-1.370, -1.365e-5
-1.369, -1.364e-5
-1.368, -1.363e-5
-1.367, -1.363e-5
-1.366, -1.363e-5
-1.365, -1.363e-5
-1.364, -1.362e-5
-1.363, -1.362e-5
-1.362, -1.362e-5
-1.361, -1.362e-5
-1.360, -1.362e-5
-1.359, -1.361e-5
-1.358, -1.361e-5
-1.357, -1.360e-5
-1.356, -1.360e-5
-1.355, -1.360e-5
-1.354, -1.360e-5
-1.353, -1.360e-5
-1.352, -1.360e-5
-1.351, -1.359e-5
-1.350, -1.359e-5
-1.349, -1.359e-5
-1.348, -1.359e-5
-1.347, -1.358e-5
-1.346, -1.359e-5
-1.345, -1.358e-5
-1.344, -1.358e-5
-1.343, -1.357e-5
-1.342, -1.357e-5
-1.341, -1.357e-5
-1.340, -1.357e-5
-1.339, -1.356e-5
-1.338, -1.356e-5
-1.337, -1.356e-5
-1.336, -1.356e-5
-1.335, -1.355e-5
-1.334, -1.355e-5
-1.333, -1.355e-5
-1.332, -1.355e-5
-1.331, -1.354e-5
-1.330, -1.355e-5
-1.329, -1.354e-5
-1.328, -1.354e-5
-1.327, -1.354e-5
-1.326, -1.354e-5
-1.325, -1.353e-5
-1.324, -1.353e-5
-1.323, -1.353e-5
-1.322, -1.353e-5
-1.321, -1.352e-5
-1.320, -1.352e-5
-1.319, -1.352e-5
-1.318, -1.352e-5
-1.317, -1.352e-5
-1.316, -1.352e-5
-1.315, -1.351e-5
-1.314, -1.351e-5
-1.313, -1.350e-5
-1.312, -1.350e-5
-1.311, -1.350e-5
-1.310, -1.350e-5
-1.309, -1.350e-5
-1.308, -1.349e-5
-1.307, -1.349e-5
-1.306, -1.348e-5
-1.305, -1.348e-5
-1.304, -1.348e-5
-1.303, -1.348e-5
-1.302, -1.348e-5
-1.301, -1.348e-5
-1.300, -1.348e-5
-1.299, -1.347e-5
-1.298, -1.347e-5
-1.297, -1.347e-5
-1.296, -1.347e-5
-1.295, -1.346e-5
-1.294, -1.346e-5
-1.293, -1.346e-5
-1.292, -1.346e-5
-1.291, -1.345e-5
-1.290, -1.345e-5
-1.289, -1.345e-5
-1.288, -1.344e-5
-1.287, -1.344e-5
-1.286, -1.344e-5
-1.285, -1.344e-5
-1.284, -1.343e-5
-1.283, -1.343e-5
-1.282, -1.343e-5
-1.281, -1.343e-5
-1.280, -1.342e-5
-1.279, -1.342e-5
-1.278, -1.342e-5
-1.277, -1.342e-5
-1.276, -1.341e-5
-1.275, -1.341e-5
-1.274, -1.341e-5
-1.273, -1.340e-5
-1.272, -1.340e-5
-1.271, -1.340e-5
-1.270, -1.340e-5
-1.269, -1.339e-5
-1.268, -1.339e-5
-1.267, -1.339e-5
-1.266, -1.339e-5
-1.265, -1.338e-5
-1.264, -1.338e-5
-1.263, -1.338e-5
-1.262, -1.338e-5
-1.261, -1.338e-5
-1.260, -1.337e-5
-1.259, -1.337e-5
-1.258, -1.337e-5
-1.257, -1.336e-5
-1.256, -1.336e-5
-1.255, -1.335e-5
-1.254, -1.335e-5
-1.253, -1.335e-5
-1.252, -1.335e-5
-1.251, -1.335e-5
-1.250, -1.335e-5
-1.249, -1.334e-5
-1.248, -1.334e-5
-1.247, -1.334e-5
-1.246, -1.333e-5
-1.245, -1.333e-5
-1.244, -1.333e-5
-1.243, -1.333e-5
-1.242, -1.333e-5
-1.241, -1.332e-5
-1.240, -1.332e-5
-1.239, -1.331e-5
-1.238, -1.331e-5
-1.237, -1.331e-5
-1.236, -1.331e-5
-1.235, -1.331e-5
-1.234, -1.330e-5
-1.233, -1.330e-5
-1.232, -1.330e-5
-1.231, -1.329e-5
-1.230, -1.329e-5
-1.229, -1.331e-5
-1.228, -1.329e-5
-1.227, -1.328e-5
-1.226, -1.328e-5
-1.225, -1.328e-5
-1.224, -1.328e-5
-1.223, -1.327e-5
-1.222, -1.327e-5
-1.221, -1.327e-5
-1.220, -1.326e-5
-1.219, -1.326e-5
-1.218, -1.326e-5
-1.217, -1.325e-5
-1.216, -1.326e-5
-1.215, -1.325e-5
-1.214, -1.325e-5
-1.213, -1.324e-5
-1.212, -1.324e-5
-1.211, -1.324e-5
-1.210, -1.323e-5
-1.209, -1.323e-5
-1.208, -1.323e-5
-1.207, -1.322e-5
-1.206, -1.322e-5
-1.205, -1.322e-5
-1.204, -1.321e-5
-1.203, -1.320e-5
-1.202, -1.320e-5
-1.201, -1.320e-5
-1.200, -1.320e-5
-1.199, -1.319e-5
-1.198, -1.319e-5
-1.197, -1.319e-5
-1.196, -1.318e-5
-1.195, -1.318e-5
-1.194, -1.318e-5
-1.193, -1.317e-5
-1.192, -1.317e-5
-1.191, -1.317e-5
-1.190, -1.316e-5
-1.189, -1.316e-5
-1.188, -1.315e-5
-1.187, -1.315e-5
-1.186, -1.314e-5
-1.185, -1.314e-5
-1.184, -1.314e-5
-1.183, -1.313e-5
-1.182, -1.313e-5
-1.181, -1.312e-5
-1.180, -1.311e-5
-1.179, -1.311e-5
-1.178, -1.311e-5
-1.177, -1.310e-5
-1.176, -1.310e-5
-1.175, -1.309e-5
-1.174, -1.309e-5
-1.173, -1.308e-5
-1.172, -1.307e-5
-1.171, -1.307e-5
-1.170, -1.306e-5
-1.169, -1.305e-5
-1.168, -1.305e-5
-1.167, -1.304e-5
-1.166, -1.304e-5
-1.165, -1.304e-5
-1.164, -1.303e-5
-1.163, -1.302e-5
-1.162, -1.302e-5
-1.161, -1.301e-5
-1.160, -1.300e-5
-1.159, -1.299e-5
-1.158, -1.298e-5
-1.157, -1.298e-5
-1.156, -1.297e-5
-1.155, -1.296e-5
-1.154, -1.296e-5
-1.153, -1.295e-5
-1.152, -1.293e-5
-1.151, -1.292e-5
-1.150, -1.292e-5
-1.149, -1.292e-5
-1.148, -1.290e-5
-1.147, -1.289e-5
-1.146, -1.288e-5
-1.145, -1.288e-5
-1.144, -1.286e-5
-1.143, -1.285e-5
-1.142, -1.284e-5
-1.141, -1.284e-5
-1.140, -1.282e-5
-1.139, -1.281e-5
-1.138, -1.280e-5
-1.137, -1.279e-5
-1.136, -1.278e-5
-1.135, -1.276e-5
-1.134, -1.275e-5
-1.133, -1.274e-5
-1.132, -1.272e-5
-1.131, -1.271e-5
-1.130, -1.270e-5
-1.129, -1.268e-5
-1.128, -1.267e-5
-1.127, -1.264e-5
-1.126, -1.263e-5
-1.125, -1.262e-5
-1.124, -1.260e-5
-1.123, -1.259e-5
-1.122, -1.257e-5
-1.121, -1.255e-5
-1.120, -1.253e-5
-1.119, -1.252e-5
-1.118, -1.250e-5
-1.117, -1.248e-5
-1.116, -1.245e-5
-1.115, -1.243e-5
-1.114, -1.242e-5
-1.113, -1.240e-5
-1.112, -1.237e-5
-1.111, -1.234e-5
-1.110, -1.232e-5
-1.109, -1.230e-5
-1.108, -1.227e-5
-1.107, -1.224e-5
-1.106, -1.222e-5
-1.105, -1.219e-5
-1.104, -1.217e-5
-1.103, -1.214e-5
-1.102, -1.210e-5
-1.101, -1.206e-5
-1.100, -1.204e-5
-1.099, -1.200e-5
-1.098, -1.197e-5
-1.097, -1.194e-5
-1.096, -1.191e-5
-1.095, -1.186e-5
-1.094, -1.182e-5
-1.093, -1.179e-5
-1.092, -1.174e-5
-1.091, -1.170e-5
-1.090, -1.167e-5
-1.089, -1.163e-5
-1.088, -1.159e-5
-1.087, -1.153e-5
-1.086, -1.149e-5
-1.085, -1.145e-5
-1.084, -1.139e-5
-1.083, -1.133e-5
-1.082, -1.129e-5
-1.081, -1.124e-5
-1.080, -1.119e-5
-1.079, -1.112e-5
-1.078, -1.107e-5
-1.077, -1.101e-5
-1.076, -1.093e-5
-1.075, -1.089e-5
-1.074, -1.081e-5
-1.073, -1.074e-5
-1.072, -1.068e-5
-1.071, -1.060e-5
-1.070, -1.053e-5
-1.069, -1.046e-5
-1.068, -1.037e-5
-1.067, -1.029e-5
-1.066, -1.021e-5
-1.065, -1.013e-5
-1.064, -1.005e-5
-1.063, -9.966e-6
-1.062, -9.868e-6
-1.061, -9.790e-6
-1.060, -9.685e-6
-1.059, -9.582e-6
-1.058, -9.488e-6
-1.057, -9.374e-6
-1.056, -9.281e-6
-1.055, -9.145e-6
-1.054, -9.057e-6
-1.053, -8.942e-6
-1.052, -8.801e-6
-1.051, -8.689e-6
-1.050, -8.541e-6
-1.049, -8.416e-6
-1.048, -8.293e-6
-1.047, -8.152e-6
-1.046, -8.024e-6
-1.045, -7.889e-6
-1.044, -7.729e-6
-1.043, -7.574e-6
-1.042, -7.437e-6
-1.041, -7.273e-6
-1.040, -7.111e-6
-1.039, -6.935e-6
-1.038, -6.775e-6
-1.037, -6.650e-6
-1.036, -6.445e-6
-1.035, -6.255e-6
-1.034, -6.089e-6
-1.033, -5.893e-6
-1.032, -5.719e-6
-1.031, -5.508e-6
-1.030, -5.314e-6
-1.029, -5.127e-6
-1.028, -4.898e-6
-1.027, -4.672e-6
-1.026, -4.490e-6
-1.025, -4.247e-6
-1.024, -4.194e-6
-1.023, -3.883e-6
-1.022, -3.614e-6
-1.021, -3.420e-6
-1.020, -3.145e-6
-1.019, -2.925e-6
-1.018, -2.679e-6
-1.017, -2.425e-6
-1.016, -2.185e-6
-1.015, -1.927e-6
-1.014, -1.678e-6
-1.013, -1.443e-6
-1.012, -1.165e-6
-1.011, -9.944e-7
-1.010, -6.849e-7
-1.009, -4.119e-7
-1.008, -1.571e-7
-1.007, 1.312e-7
-1.006, 3.872e-7
-1.005, 6.189e-7
-1.004, 9.242e-7
-1.003, 1.185e-6
-1.002, 1.447e-6
-1.001, 1.685e-6
-1.000, 1.951e-6
-0.999, 2.290e-6
-0.998, 2.563e-6
-0.997, 2.780e-6
-0.996, 3.060e-6
-0.995, 3.287e-6
-0.994, 3.527e-6
-0.993, 3.822e-6
-0.992, 4.023e-6
-0.991, 4.291e-6
-0.990, 4.525e-6
-0.989, 4.744e-6
-0.988, 5.010e-6
-0.987, 5.220e-6
-0.986, 5.397e-6
-0.985, 5.639e-6
-0.984, 5.849e-6
-0.983, 6.119e-6
-0.982, 6.325e-6
-0.981, 6.539e-6
-0.980, 6.738e-6
-0.979, 6.904e-6
-0.978, 7.129e-6
-0.977, 7.352e-6
-0.976, 7.488e-6
-0.975, 7.722e-6
-0.974, 7.885e-6
-0.973, 8.038e-6
-0.972, 8.263e-6
-0.971, 8.414e-6
-0.970, 8.585e-6
-0.969, 8.748e-6
-0.968, 8.902e-6
-0.967, 9.076e-6
-0.966, 9.221e-6
-0.965, 9.371e-6
-0.964, 9.514e-6
-0.963, 9.677e-6
-0.962, 9.822e-6
-0.961, 9.962e-6
-0.960, 1.001e-5
-0.959, 1.023e-5
-0.958, 1.036e-5
-0.957, 1.049e-5
-0.956, 1.065e-5
-0.955, 1.080e-5
-0.954, 1.090e-5
-0.953, 1.104e-5
-0.952, 1.119e-5
-0.951, 1.134e-5
-0.950, 1.147e-5
-0.949, 1.156e-5
-0.948, 1.174e-5
-0.947, 1.199e-5
-0.946, 1.202e-5
-0.945, 1.215e-5
-0.944, 1.228e-5
-0.943, 1.241e-5
-0.942, 1.254e-5
-0.941, 1.263e-5
-0.940, 1.279e-5
-0.939, 1.291e-5
-0.938, 1.304e-5
-0.937, 1.318e-5
-0.936, 1.330e-5
-0.935, 1.341e-5
-0.934, 1.352e-5
-0.933, 1.364e-5
-0.932, 1.380e-5
-0.931, 1.392e-5
-0.930, 1.404e-5
-0.929, 1.417e-5
-0.928, 1.425e-5
-0.927, 1.442e-5
-0.926, 1.456e-5
-0.925, 1.463e-5
-0.924, 1.476e-5
-0.923, 1.487e-5
-0.922, 1.504e-5
-0.921, 1.514e-5
-0.920, 1.521e-5
-0.919, 1.535e-5
-0.918, 1.541e-5
-0.917, 1.549e-5
-0.916, 1.561e-5
-0.915, 1.571e-5
-0.914, 1.574e-5
-0.913, 1.585e-5
-0.912, 1.592e-5
-0.911, 1.600e-5
-0.910, 1.605e-5
-0.909, 1.604e-5
-0.908, 1.614e-5
-0.907, 1.621e-5
-0.906, 1.625e-5
-0.905, 1.630e-5
-0.904, 1.631e-5
-0.903, 1.638e-5
-0.902, 1.639e-5
-0.901, 1.638e-5
-0.900, 1.644e-5
-0.899, 1.644e-5
-0.898, 1.644e-5
-0.897, 1.644e-5
-0.896, 1.649e-5
-0.895, 1.646e-5
-0.894, 1.645e-5
-0.893, 1.639e-5
-0.892, 1.635e-5
-0.891, 1.634e-5
-0.890, 1.631e-5
-0.889, 1.624e-5
-0.888, 1.620e-5
-0.887, 1.618e-5
-0.886, 1.611e-5
-0.885, 1.604e-5
-0.884, 1.598e-5
-0.883, 1.588e-5
-0.882, 1.583e-5
-0.881, 1.576e-5
-0.880, 1.568e-5
-0.879, 1.560e-5
-0.878, 1.553e-5
-0.877, 1.542e-5
-0.876, 1.534e-5
-0.875, 1.525e-5
-0.874, 1.515e-5
-0.873, 1.505e-5
-0.872, 1.496e-5
-0.871, 1.485e-5
-0.870, 1.475e-5
-0.869, 1.463e-5
-0.868, 1.453e-5
-0.867, 1.443e-5
-0.866, 1.431e-5
-0.865, 1.422e-5
-0.864, 1.408e-5
-0.863, 1.399e-5
-0.862, 1.387e-5
-0.861, 1.374e-5
-0.860, 1.364e-5
-0.859, 1.353e-5
-0.858, 1.337e-5
-0.857, 1.328e-5
-0.856, 1.316e-5
-0.855, 1.305e-5
-0.854, 1.294e-5
-0.853, 1.281e-5
-0.852, 1.271e-5
-0.851, 1.259e-5
-0.850, 1.247e-5
-0.849, 1.235e-5
-0.848, 1.223e-5
-0.847, 1.212e-5
-0.846, 1.201e-5
-0.845, 1.191e-5
-0.844, 1.179e-5
-0.843, 1.167e-5
-0.842, 1.156e-5
-0.841, 1.145e-5
-0.840, 1.134e-5
-0.839, 1.123e-5
-0.838, 1.112e-5
-0.837, 1.101e-5
-0.836, 1.091e-5
-0.835, 1.080e-5
-0.834, 1.070e-5
-0.833, 1.060e-5
-0.832, 1.047e-5
-0.831, 1.038e-5
-0.830, 1.029e-5
-0.829, 1.018e-5
-0.828, 1.009e-5
-0.827, 9.988e-6
-0.826, 9.888e-6
-0.825, 9.792e-6
-0.824, 9.700e-6
-0.823, 9.611e-6
-0.822, 9.518e-6
-0.821, 9.417e-6
-0.820, 9.330e-6
-0.819, 9.222e-6
-0.818, 9.150e-6
-0.817, 9.062e-6
-0.816, 8.979e-6
-0.815, 8.894e-6
-0.814, 8.811e-6
-0.813, 8.725e-6
-0.812, 8.645e-6
-0.811, 8.570e-6
-0.810, 8.482e-6
-0.809, 8.405e-6
-0.808, 8.327e-6
-0.807, 8.247e-6
-0.806, 8.174e-6
-0.805, 8.097e-6
-0.804, 8.029e-6
-0.803, 7.952e-6
-0.802, 7.880e-6
-0.801, 7.813e-6
-0.800, 7.737e-6
-0.799, 7.667e-6
-0.798, 7.593e-6
-0.797, 7.529e-6
-0.796, 7.464e-6
-0.795, 7.398e-6
-0.794, 7.337e-6
-0.793, 7.273e-6
-0.792, 7.209e-6
-0.791, 7.148e-6
-0.790, 7.082e-6
-0.789, 7.017e-6
-0.788, 6.961e-6
-0.787, 6.905e-6
-0.786, 6.843e-6
-0.785, 6.789e-6
-0.784, 6.728e-6
-0.783, 6.675e-6
-0.782, 6.616e-6
-0.781, 6.551e-6
-0.780, 6.505e-6
-0.779, 6.453e-6
-0.778, 6.401e-6
-0.777, 6.349e-6
-0.776, 6.298e-6
-0.775, 6.246e-6
-0.774, 6.198e-6
-0.773, 6.145e-6
-0.772, 6.100e-6
-0.771, 6.051e-6
-0.770, 6.000e-6
-0.769, 5.953e-6
-0.768, 5.903e-6
-0.767, 5.863e-6
-0.766, 5.818e-6
-0.765, 5.771e-6
-0.764, 5.733e-6
-0.763, 5.685e-6
-0.762, 5.642e-6
-0.761, 5.602e-6
-0.760, 5.555e-6
-0.759, 5.514e-6
-0.758, 5.477e-6
-0.757, 5.430e-6
-0.756, 5.393e-6
-0.755, 5.349e-6
-0.754, 5.313e-6
-0.753, 5.274e-6
-0.752, 5.238e-6
-0.751, 5.202e-6
-0.750, 5.163e-6
-0.749, 5.122e-6
-0.748, 5.089e-6
-0.747, 5.050e-6
-0.746, 5.013e-6
-0.745, 4.980e-6
-0.744, 4.946e-6
-0.743, 4.914e-6
-0.742, 4.881e-6
-0.741, 4.845e-6
-0.740, 4.810e-6
-0.739, 4.779e-6
-0.738, 4.745e-6
-0.737, 4.713e-6
-0.736, 4.676e-6
-0.735, 4.649e-6
-0.734, 4.618e-6
-0.733, 4.581e-6
-0.732, 4.553e-6
-0.731, 4.523e-6
-0.730, 4.485e-6
-0.729, 4.456e-6
-0.728, 4.427e-6
-0.727, 4.402e-6
-0.726, 4.374e-6
-0.725, 4.347e-6
-0.724, 4.317e-6
-0.723, 4.292e-6
-0.722, 4.263e-6
-0.721, 4.240e-6
-0.720, 4.210e-6
-0.719, 4.186e-6
-0.718, 4.158e-6
-0.717, 4.140e-6
-0.716, 4.109e-6
-0.715, 4.077e-6
-0.714, 4.051e-6
-0.713, 4.030e-6
-0.712, 4.003e-6
-0.711, 3.979e-6
-0.710, 3.957e-6
-0.709, 3.931e-6
-0.708, 3.907e-6
-0.707, 3.887e-6
-0.706, 3.859e-6
-0.705, 3.833e-6
-0.704, 3.800e-6
-0.703, 3.786e-6
-0.702, 3.764e-6
-0.701, 3.741e-6
-0.700, 3.718e-6
-0.699, 3.698e-6
-0.698, 3.672e-6
-0.697, 3.652e-6
-0.696, 3.630e-6
-0.695, 3.613e-6
-0.694, 3.587e-6
-0.693, 3.564e-6
-0.692, 3.549e-6
-0.691, 3.536e-6
-0.690, 3.508e-6
-0.689, 3.487e-6
-0.688, 3.465e-6
-0.687, 3.446e-6
-0.686, 3.429e-6
-0.685, 3.406e-6
-0.684, 3.391e-6
-0.683, 3.374e-6
-0.682, 3.351e-6
-0.681, 3.334e-6
-0.680, 3.318e-6
-0.679, 3.298e-6
-0.678, 3.281e-6
-0.677, 3.263e-6
-0.676, 3.247e-6
-0.675, 3.230e-6
-0.674, 3.210e-6
-0.673, 3.196e-6
-0.672, 3.175e-6
-0.671, 3.163e-6
-0.670, 3.144e-6
-0.669, 3.119e-6
-0.668, 3.106e-6
-0.667, 3.090e-6
-0.666, 3.072e-6
-0.665, 3.058e-6
-0.664, 3.042e-6
-0.663, 3.031e-6
-0.662, 3.016e-6
-0.661, 2.996e-6
-0.660, 2.981e-6
-0.659, 2.966e-6
-0.658, 2.954e-6
-0.657, 2.935e-6
-0.656, 2.923e-6
-0.655, 2.910e-6
-0.654, 2.895e-6
-0.653, 2.869e-6
-0.652, 2.862e-6
-0.651, 2.851e-6
-0.650, 2.831e-6
-0.649, 2.822e-6
-0.648, 2.804e-6
-0.647, 2.796e-6
-0.646, 2.779e-6
-0.645, 2.764e-6
-0.644, 2.752e-6
-0.643, 2.738e-6
-0.642, 2.720e-6
-0.641, 2.711e-6
-0.640, 2.704e-6
-0.639, 2.685e-6
-0.638, 2.672e-6
-0.637, 2.655e-6
-0.636, 2.646e-6
-0.635, 2.632e-6
-0.634, 2.614e-6
-0.633, 2.601e-6
-0.632, 2.592e-6
-0.631, 2.584e-6
-0.630, 2.567e-6
-0.629, 2.555e-6
-0.628, 2.539e-6
-0.627, 2.528e-6
-0.626, 2.520e-6
-0.625, 2.507e-6
-0.624, 2.494e-6
-0.623, 2.482e-6
-0.622, 2.474e-6
-0.621, 2.461e-6
-0.620, 2.451e-6
-0.619, 2.442e-6
-0.618, 2.429e-6
-0.617, 2.419e-6
-0.616, 2.408e-6
-0.615, 2.384e-6
-0.614, 2.377e-6
-0.613, 2.368e-6
-0.612, 2.359e-6
-0.611, 2.352e-6
-0.610, 2.341e-6
-0.609, 2.330e-6
-0.608, 2.321e-6
-0.607, 2.313e-6
-0.606, 2.303e-6
-0.605, 2.293e-6
-0.604, 2.287e-6
-0.603, 2.275e-6
-0.602, 2.256e-6
-0.601, 2.250e-6
-0.600, 2.244e-6
-0.599, 2.235e-6
-0.598, 2.227e-6
-0.597, 2.215e-6
-0.596, 2.208e-6
-0.595, 2.199e-6
-0.594, 2.189e-6
-0.593, 2.180e-6
-0.592, 2.173e-6
-0.591, 2.165e-6
-0.590, 2.154e-6
-0.589, 2.155e-6
-0.588, 2.136e-6
-0.587, 2.130e-6
-0.586, 2.117e-6
-0.585, 2.110e-6
-0.584, 2.100e-6
-0.583, 2.094e-6
-0.582, 2.088e-6
-0.581, 2.078e-6
-0.580, 2.074e-6
-0.579, 2.067e-6
-0.578, 2.056e-6
-0.577, 2.048e-6
-0.576, 2.031e-6
-0.575, 2.035e-6
-0.574, 2.025e-6
-0.573, 2.012e-6
-0.572, 2.009e-6
-0.571, 2.005e-6
-0.570, 1.992e-6
-0.569, 1.985e-6
-0.568, 1.977e-6
-0.567, 1.973e-6
-0.566, 1.966e-6
-0.565, 1.954e-6
-0.564, 1.954e-6
-0.563, 1.948e-6
-0.562, 1.938e-6
-0.561, 1.933e-6
-0.560, 1.923e-6
-0.559, 1.920e-6
-0.558, 1.915e-6
-0.557, 1.903e-6
-0.556, 1.904e-6
-0.555, 1.894e-6
-0.554, 1.887e-6
-0.553, 1.878e-6
-0.552, 1.873e-6
-0.551, 1.866e-6
-0.550, 1.859e-6
-0.549, 1.854e-6
-0.548, 1.850e-6
-0.547, 1.843e-6
-0.546, 1.836e-6
-0.545, 1.831e-6
-0.544, 1.827e-6
-0.543, 1.822e-6
-0.542, 1.813e-6
-0.541, 1.808e-6
-0.540, 1.801e-6
-0.539, 1.799e-6
-0.538, 1.796e-6
-0.537, 1.790e-6
-0.536, 1.782e-6
-0.535, 1.774e-6
-0.534, 1.766e-6
-0.533, 1.759e-6
-0.532, 1.757e-6
-0.531, 1.751e-6
-0.530, 1.744e-6
-0.529, 1.737e-6
-0.528, 1.734e-6
-0.527, 1.731e-6
-0.526, 1.723e-6
-0.525, 1.706e-6
-0.524, 1.712e-6
-0.523, 1.706e-6
-0.522, 1.698e-6
-0.521, 1.696e-6
-0.520, 1.688e-6
-0.519, 1.687e-6
-0.518, 1.678e-6
-0.517, 1.670e-6
-0.516, 1.666e-6
-0.515, 1.663e-6
-0.514, 1.656e-6
-0.513, 1.652e-6
-0.512, 1.655e-6
-0.511, 1.646e-6
-0.510, 1.638e-6
-0.509, 1.630e-6
-0.508, 1.623e-6
-0.507, 1.626e-6
-0.506, 1.615e-6
-0.505, 1.614e-6
-0.504, 1.605e-6
-0.503, 1.606e-6
-0.502, 1.600e-6
-0.501, 1.594e-6
-0.500, 1.591e-6
-0.499, 1.582e-6
-0.498, 1.577e-6
-0.497, 1.576e-6
-0.496, 1.574e-6
-0.495, 1.571e-6
-0.494, 1.566e-6
-0.493, 1.557e-6
-0.492, 1.559e-6
-0.491, 1.555e-6
-0.490, 1.543e-6
-0.489, 1.549e-6
-0.488, 1.541e-6
-0.487, 1.547e-6
-0.486, 1.538e-6
-0.485, 1.530e-6
-0.484, 1.529e-6
-0.483, 1.524e-6
-0.482, 1.518e-6
-0.481, 1.518e-6
-0.480, 1.513e-6
-0.479, 1.512e-6
-0.478, 1.507e-6
-0.477, 1.500e-6
-0.476, 1.505e-6
-0.475, 1.500e-6
-0.474, 1.489e-6
-0.473, 1.494e-6
-0.472, 1.491e-6
-0.471, 1.490e-6
-0.470, 1.487e-6
-0.469, 1.484e-6
-0.468, 1.484e-6
-0.467, 1.481e-6
-0.466, 1.479e-6
-0.465, 1.475e-6
-0.464, 1.472e-6
-0.463, 1.475e-6
-0.462, 1.470e-6
-0.461, 1.462e-6
-0.460, 1.467e-6
-0.459, 1.467e-6
-0.458, 1.456e-6
-0.457, 1.463e-6
-0.456, 1.456e-6
-0.455, 1.459e-6
-0.454, 1.451e-6
-0.453, 1.450e-6
-0.452, 1.453e-6
-0.451, 1.449e-6
-0.450, 1.445e-6
-0.449, 1.445e-6
-0.448, 1.431e-6
-0.447, 1.440e-6
-0.446, 1.438e-6
-0.445, 1.433e-6
-0.444, 1.435e-6
-0.443, 1.433e-6
-0.442, 1.425e-6
-0.441, 1.429e-6
-0.440, 1.427e-6
-0.439, 1.422e-6
-0.438, 1.425e-6
-0.437, 1.419e-6
-0.436, 1.425e-6
-0.435, 1.429e-6
-0.434, 1.415e-6
-0.433, 1.414e-6
-0.432, 1.409e-6
-0.431, 1.416e-6
-0.430, 1.405e-6
-0.429, 1.407e-6
-0.428, 1.407e-6
-0.427, 1.402e-6
-0.426, 1.401e-6
-0.425, 1.399e-6
-0.424, 1.398e-6
-0.423, 1.391e-6
-0.422, 1.390e-6
-0.421, 1.389e-6
-0.420, 1.385e-6
-0.419, 1.390e-6
-0.418, 1.386e-6
-0.417, 1.386e-6
-0.416, 1.381e-6
-0.415, 1.382e-6
-0.414, 1.381e-6
-0.413, 1.375e-6
-0.412, 1.375e-6
-0.411, 1.376e-6
-0.410, 1.342e-6
-0.409, 1.362e-6
-0.408, 1.365e-6
-0.407, 1.364e-6
-0.406, 1.364e-6
-0.405, 1.361e-6
-0.404, 1.361e-6
-0.403, 1.359e-6
-0.402, 1.360e-6
-0.401, 1.358e-6
-0.400, 1.355e-6
-0.399, 1.356e-6
-0.398, 1.353e-6
-0.397, 1.344e-6
-0.396, 1.351e-6
-0.395, 1.351e-6
-0.394, 1.345e-6
-0.393, 1.345e-6
-0.392, 1.342e-6
-0.391, 1.343e-6
-0.390, 1.344e-6
-0.389, 1.339e-6
-0.388, 1.340e-6
-0.387, 1.340e-6
-0.386, 1.334e-6
-0.385, 1.336e-6
-0.384, 1.344e-6
-0.383, 1.333e-6
-0.382, 1.333e-6
-0.381, 1.329e-6
-0.380, 1.331e-6
-0.379, 1.329e-6
-0.378, 1.324e-6
-0.377, 1.327e-6
-0.376, 1.323e-6
-0.375, 1.323e-6
-0.374, 1.322e-6
-0.373, 1.315e-6
-0.372, 1.321e-6
-0.371, 1.313e-6
-0.370, 1.312e-6
-0.369, 1.311e-6
-0.368, 1.310e-6
-0.367, 1.315e-6
-0.366, 1.311e-6
-0.365, 1.304e-6
-0.364, 1.307e-6
-0.363, 1.312e-6
-0.362, 1.304e-6
-0.361, 1.302e-6
-0.360, 1.304e-6
-0.359, 1.302e-6
-0.358, 1.300e-6
-0.357, 1.295e-6
-0.356, 1.301e-6
-0.355, 1.297e-6
-0.354, 1.295e-6
-0.353, 1.296e-6
-0.352, 1.289e-6
-0.351, 1.295e-6
-0.350, 1.293e-6
-0.349, 1.291e-6
-0.348, 1.290e-6
-0.347, 1.289e-6
-0.346, 1.282e-6
-0.345, 1.284e-6
-0.344, 1.285e-6
-0.343, 1.283e-6
-0.342, 1.279e-6
-0.341, 1.280e-6
-0.340, 1.286e-6
-0.339, 1.282e-6
-0.338, 1.277e-6
-0.337, 1.279e-6
-0.336, 1.278e-6
-0.335, 1.278e-6
-0.334, 1.279e-6
-0.333, 1.282e-6
-0.332, 1.279e-6
-0.331, 1.276e-6
-0.330, 1.274e-6
-0.329, 1.274e-6
-0.328, 1.270e-6
-0.327, 1.274e-6
-0.326, 1.271e-6
-0.325, 1.268e-6
-0.324, 1.271e-6
-0.323, 1.269e-6
-0.322, 1.267e-6
-0.321, 1.270e-6
-0.320, 1.257e-6
-0.319, 1.265e-6
-0.318, 1.265e-6
-0.317, 1.260e-6
-0.316, 1.264e-6
-0.315, 1.266e-6
-0.314, 1.258e-6
-0.313, 1.265e-6
-0.312, 1.258e-6
-0.311, 1.264e-6
-0.310, 1.263e-6
-0.309, 1.257e-6
-0.308, 1.261e-6
-0.307, 1.266e-6
-0.306, 1.259e-6
-0.305, 1.260e-6
-0.304, 1.252e-6
-0.303, 1.260e-6
-0.302, 1.261e-6
-0.301, 1.253e-6
-0.300, 1.257e-6
-0.299, 1.255e-6
-0.298, 1.256e-6
-0.297, 1.253e-6
-0.296, 1.253e-6
-0.295, 1.250e-6
-0.294, 1.248e-6
-0.293, 1.250e-6
-0.292, 1.251e-6
-0.291, 1.252e-6
-0.290, 1.251e-6
-0.289, 1.249e-6
-0.288, 1.251e-6
-0.287, 1.250e-6
-0.286, 1.250e-6
-0.285, 1.247e-6
-0.284, 1.249e-6
-0.283, 1.251e-6
-0.282, 1.255e-6
-0.281, 1.249e-6
-0.280, 1.249e-6
-0.279, 1.247e-6
-0.278, 1.247e-6
-0.277, 1.243e-6
-0.276, 1.248e-6
-0.275, 1.245e-6
-0.274, 1.243e-6
-0.273, 1.245e-6
-0.272, 1.243e-6
-0.271, 1.246e-6
-0.270, 1.241e-6
-0.269, 1.230e-6
-0.268, 1.241e-6
-0.267, 1.244e-6
-0.266, 1.239e-6
-0.265, 1.240e-6
-0.264, 1.238e-6
-0.263, 1.238e-6
-0.262, 1.238e-6
-0.261, 1.235e-6
-0.260, 1.241e-6
-0.259, 1.237e-6
-0.258, 1.237e-6
-0.257, 1.234e-6
-0.256, 1.232e-6
-0.255, 1.233e-6
-0.254, 1.236e-6
-0.253, 1.232e-6
-0.252, 1.234e-6
-0.251, 1.234e-6
-0.250, 1.232e-6
-0.249, 1.232e-6
-0.248, 1.232e-6
-0.247, 1.231e-6
-0.246, 1.232e-6
-0.245, 1.229e-6
-0.244, 1.229e-6
-0.243, 1.226e-6
-0.242, 1.226e-6
-0.241, 1.228e-6
-0.240, 1.226e-6
-0.239, 1.230e-6
-0.238, 1.227e-6
-0.237, 1.221e-6
-0.236, 1.225e-6
-0.235, 1.227e-6
-0.234, 1.224e-6
-0.233, 1.222e-6
-0.232, 1.225e-6
-0.231, 1.230e-6
-0.230, 1.230e-6
-0.229, 1.224e-6
-0.228, 1.221e-6
-0.227, 1.226e-6
-0.226, 1.223e-6
-0.225, 1.223e-6
-0.224, 1.220e-6
-0.223, 1.222e-6
-0.222, 1.219e-6
-0.221, 1.216e-6
-0.220, 1.223e-6
-0.219, 1.221e-6
-0.218, 1.207e-6
-0.217, 1.217e-6
-0.216, 1.219e-6
-0.215, 1.216e-6
-0.214, 1.216e-6
-0.213, 1.216e-6
-0.212, 1.214e-6
-0.211, 1.217e-6
-0.210, 1.215e-6
-0.209, 1.215e-6
-0.208, 1.215e-6
-0.207, 1.217e-6
-0.206, 1.215e-6
-0.205, 1.193e-6
-0.204, 1.210e-6
-0.203, 1.212e-6
-0.202, 1.209e-6
-0.201, 1.212e-6
-0.200, 1.210e-6
-0.199, 1.213e-6
-0.198, 1.213e-6
-0.197, 1.208e-6
-0.196, 1.214e-6
-0.195, 1.214e-6
-0.194, 1.211e-6
-0.193, 1.212e-6
-0.192, 1.203e-6
-0.191, 1.209e-6
-0.190, 1.212e-6
-0.189, 1.209e-6
-0.188, 1.212e-6
-0.187, 1.213e-6
-0.186, 1.212e-6
-0.185, 1.213e-6
-0.184, 1.214e-6
-0.183, 1.212e-6
-0.182, 1.215e-6
-0.181, 1.213e-6
-0.180, 1.220e-6
-0.179, 1.225e-6
-0.178, 1.216e-6
-0.177, 1.218e-6
-0.176, 1.216e-6
-0.175, 1.219e-6
-0.174, 1.218e-6
-0.173, 1.216e-6
-0.172, 1.217e-6
-0.171, 1.225e-6
-0.170, 1.221e-6
-0.169, 1.221e-6
-0.168, 1.220e-6
-0.167, 1.219e-6
-0.166, 1.224e-6
-0.165, 1.221e-6
-0.164, 1.226e-6
-0.163, 1.224e-6
-0.162, 1.227e-6
-0.161, 1.233e-6
-0.160, 1.229e-6
-0.159, 1.232e-6
-0.158, 1.231e-6
-0.157, 1.233e-6
-0.156, 1.238e-6
-0.155, 1.240e-6
-0.154, 1.234e-6
-0.153, 1.241e-6
-0.152, 1.238e-6
-0.151, 1.243e-6
-0.150, 1.244e-6
-0.149, 1.241e-6
-0.148, 1.252e-6
-0.147, 1.248e-6
-0.146, 1.252e-6
-0.145, 1.252e-6
-0.144, 1.257e-6
-0.143, 1.259e-6
-0.142, 1.259e-6
-0.141, 1.251e-6
-0.140, 1.265e-6
-0.139, 1.264e-6
-0.138, 1.263e-6
-0.137, 1.270e-6
-0.136, 1.274e-6
-0.135, 1.278e-6
-0.134, 1.277e-6
-0.133, 1.277e-6
-0.132, 1.287e-6
-0.131, 1.287e-6
-0.130, 1.288e-6
-0.129, 1.293e-6
-0.128, 1.306e-6
-0.127, 1.301e-6
-0.126, 1.304e-6
-0.125, 1.305e-6
-0.124, 1.312e-6
-0.123, 1.315e-6
-0.122, 1.309e-6
-0.121, 1.323e-6
-0.120, 1.323e-6
-0.119, 1.325e-6
-0.118, 1.326e-6
-0.117, 1.330e-6
-0.116, 1.339e-6
-0.115, 1.335e-6
-0.114, 1.342e-6
-0.113, 1.344e-6
-0.112, 1.351e-6
-0.111, 1.356e-6
-0.110, 1.360e-6
-0.109, 1.360e-6
-0.108, 1.363e-6
-0.107, 1.370e-6
-0.106, 1.375e-6
-0.105, 1.379e-6
-0.104, 1.382e-6
-0.103, 1.396e-6
-0.102, 1.395e-6
-0.101, 1.395e-6
-0.100, 1.403e-6
-0.099, 1.408e-6
-0.098, 1.410e-6
-0.097, 1.416e-6
-0.096, 1.421e-6
-0.095, 1.428e-6
-0.094, 1.430e-6
-0.093, 1.435e-6
-0.092, 1.438e-6
-0.091, 1.448e-6
-0.090, 1.442e-6
-0.089, 1.451e-6
-0.088, 1.452e-6
-0.087, 1.465e-6
-0.086, 1.467e-6
-0.085, 1.470e-6
-0.084, 1.478e-6
-0.083, 1.483e-6
-0.082, 1.484e-6
-0.081, 1.493e-6
-0.080, 1.495e-6
-0.079, 1.501e-6
-0.078, 1.511e-6
-0.077, 1.520e-6
-0.076, 1.521e-6
-0.075, 1.532e-6
-0.074, 1.526e-6
-0.073, 1.537e-6
-0.072, 1.540e-6
-0.071, 1.550e-6
-0.070, 1.549e-6
-0.069, 1.558e-6
-0.068, 1.562e-6
-0.067, 1.568e-6
-0.066, 1.577e-6
-0.065, 1.583e-6
-0.064, 1.577e-6
-0.063, 1.589e-6
-0.062, 1.593e-6
-0.061, 1.596e-6
-0.060, 1.609e-6
-0.059, 1.611e-6
-0.058, 1.614e-6
-0.057, 1.619e-6
-0.056, 1.627e-6
-0.055, 1.630e-6
-0.054, 1.640e-6
-0.053, 1.641e-6
-0.052, 1.651e-6
-0.051, 1.655e-6
-0.050, 1.660e-6
-0.049, 1.670e-6
-0.048, 1.675e-6
-0.047, 1.678e-6
-0.046, 1.690e-6
-0.045, 1.691e-6
-0.044, 1.698e-6
-0.043, 1.704e-6
-0.042, 1.708e-6
-0.041, 1.717e-6
-0.040, 1.720e-6
-0.039, 1.724e-6
-0.038, 1.729e-6
-0.037, 1.738e-6
-0.036, 1.743e-6
-0.035, 1.753e-6
-0.034, 1.752e-6
-0.033, 1.757e-6
-0.032, 1.768e-6
-0.031, 1.774e-6
-0.030, 1.780e-6
-0.029, 1.778e-6
-0.028, 1.795e-6
-0.027, 1.799e-6
-0.026, 1.811e-6
-0.025, 1.811e-6
-0.024, 1.813e-6
-0.023, 1.822e-6
-0.022, 1.828e-6
-0.021, 1.828e-6
-0.020, 1.837e-6
-0.019, 1.843e-6
-0.018, 1.846e-6
-0.017, 1.852e-6
-0.016, 1.859e-6
-0.015, 1.864e-6
-0.014, 1.870e-6
-0.013, 1.863e-6
-0.012, 1.876e-6
-0.011, 1.885e-6
-0.010, 1.885e-6
-0.009, 1.895e-6
-0.008, 1.903e-6
-0.007, 1.906e-6
-0.006, 1.912e-6
-0.005, 1.916e-6
-0.004, 1.924e-6
-0.003, 1.929e-6
-0.002, 1.931e-6
-0.001, 1.936e-6
-0.000, 1.906e-6
0.001, 1.940e-6
0.002, 1.946e-6
0.003, 1.948e-6
0.004, 1.958e-6
0.005, 1.966e-6
0.006, 1.964e-6
0.007, 1.972e-6
0.008, 1.975e-6
0.009, 1.982e-6
0.010, 1.987e-6
0.011, 1.991e-6
0.012, 1.996e-6
0.013, 1.995e-6
0.014, 2.006e-6
0.015, 2.014e-6
0.016, 2.015e-6
0.017, 2.024e-6
0.018, 2.025e-6
0.019, 2.025e-6
0.020, 2.038e-6
0.021, 2.042e-6
0.022, 2.043e-6
0.023, 2.049e-6
0.024, 2.054e-6
0.025, 2.069e-6
0.026, 2.068e-6
0.027, 2.066e-6
0.028, 2.073e-6
0.029, 2.077e-6
0.030, 2.080e-6
0.031, 2.084e-6
0.032, 2.084e-6
0.033, 2.091e-6
0.034, 2.095e-6
0.035, 2.096e-6
0.036, 2.104e-6
0.037, 2.106e-6
0.038, 2.100e-6
0.039, 2.108e-6
0.040, 2.112e-6
0.041, 2.119e-6
0.042, 2.119e-6
0.043, 2.122e-6
0.044, 2.126e-6
0.045, 2.132e-6
0.046, 2.137e-6
0.047, 2.141e-6
0.048, 2.139e-6
0.049, 2.146e-6
0.050, 2.152e-6
0.051, 2.145e-6
0.052, 2.154e-6
0.053, 2.157e-6
0.054, 2.159e-6
0.055, 2.166e-6
0.056, 2.163e-6
0.057, 2.172e-6
0.058, 2.173e-6
0.059, 2.171e-6
0.060, 2.177e-6
0.061, 2.181e-6
0.062, 2.180e-6
0.063, 2.183e-6
0.064, 2.171e-6
0.065, 2.190e-6
0.066, 2.190e-6
0.067, 2.183e-6
0.068, 2.192e-6
0.069, 2.195e-6
0.070, 2.194e-6
0.071, 2.201e-6
0.072, 2.195e-6
0.073, 2.204e-6
0.074, 2.200e-6
0.075, 2.202e-6
0.076, 2.210e-6
0.077, 2.220e-6
0.078, 2.209e-6
0.079, 2.212e-6
0.080, 2.212e-6
0.081, 2.217e-6
0.082, 2.214e-6
0.083, 2.211e-6
0.084, 2.215e-6
0.085, 2.215e-6
0.086, 2.218e-6
0.087, 2.219e-6
0.088, 2.216e-6
0.089, 2.216e-6
0.090, 2.213e-6
0.091, 2.211e-6
0.092, 2.218e-6
0.093, 2.227e-6
0.094, 2.216e-6
0.095, 2.223e-6
0.096, 2.220e-6
0.097, 2.221e-6
0.098, 2.221e-6
0.099, 2.220e-6
0.100, 2.222e-6
0.101, 2.221e-6
0.102, 2.229e-6
0.103, 2.221e-6
0.104, 2.221e-6
0.105, 2.223e-6
0.106, 2.221e-6
0.107, 2.219e-6
0.108, 2.221e-6
0.109, 2.220e-6
0.110, 2.217e-6
0.111, 2.218e-6
0.112, 2.213e-6
0.113, 2.217e-6
0.114, 2.219e-6
0.115, 2.203e-6
0.116, 2.213e-6
0.117, 2.212e-6
0.118, 2.208e-6
0.119, 2.209e-6
0.120, 2.209e-6
0.121, 2.210e-6
0.122, 2.208e-6
0.123, 2.202e-6
0.124, 2.203e-6
0.125, 2.201e-6
0.126, 2.205e-6
0.127, 2.202e-6
0.128, 2.213e-6
0.129, 2.203e-6
0.130, 2.200e-6
0.131, 2.194e-6
0.132, 2.195e-6
0.133, 2.198e-6
0.134, 2.190e-6
0.135, 2.192e-6
0.136, 2.189e-6
0.137, 2.191e-6
0.138, 2.188e-6
0.139, 2.180e-6
0.140, 2.184e-6
0.141, 2.171e-6
0.142, 2.175e-6
0.143, 2.176e-6
0.144, 2.173e-6
0.145, 2.175e-6
0.146, 2.171e-6
0.147, 2.167e-6
0.148, 2.168e-6
0.149, 2.169e-6
0.150, 2.161e-6
0.151, 2.163e-6
0.152, 2.161e-6
0.153, 2.157e-6
0.154, 2.157e-6
0.155, 2.150e-6
0.156, 2.154e-6
0.157, 2.151e-6
0.158, 2.147e-6
0.159, 2.144e-6
0.160, 2.144e-6
0.161, 2.143e-6
0.162, 2.141e-6
0.163, 2.136e-6
0.164, 2.137e-6
0.165, 2.137e-6
0.166, 2.124e-6
0.167, 2.128e-6
0.168, 2.130e-6
0.169, 2.128e-6
0.170, 2.128e-6
0.171, 2.124e-6
0.172, 2.124e-6
0.173, 2.124e-6
0.174, 2.119e-6
0.175, 2.121e-6
0.176, 2.115e-6
0.177, 2.123e-6
0.178, 2.118e-6
0.179, 2.127e-6
0.180, 2.120e-6
0.181, 2.118e-6
0.182, 2.117e-6
0.183, 2.116e-6
0.184, 2.114e-6
0.185, 2.119e-6
0.186, 2.115e-6
0.187, 2.113e-6
0.188, 2.119e-6
0.189, 2.116e-6
0.190, 2.113e-6
0.191, 2.113e-6
0.192, 2.104e-6
0.193, 2.113e-6
0.194, 2.115e-6
0.195, 2.113e-6
0.196, 2.118e-6
0.197, 2.117e-6
0.198, 2.118e-6
0.199, 2.120e-6
0.200, 2.120e-6
0.201, 2.124e-6
0.202, 2.125e-6
0.203, 2.123e-6
0.204, 2.125e-6
0.205, 2.111e-6
0.206, 2.127e-6
0.207, 2.131e-6
0.208, 2.134e-6
0.209, 2.138e-6
0.210, 2.145e-6
0.211, 2.141e-6
0.212, 2.151e-6
0.213, 2.156e-6
0.214, 2.155e-6
0.215, 2.162e-6
0.216, 2.165e-6
0.217, 2.162e-6
0.218, 2.172e-6
0.219, 2.174e-6
0.220, 2.183e-6
0.221, 2.190e-6
0.222, 2.195e-6
0.223, 2.203e-6
0.224, 2.202e-6
0.225, 2.214e-6
0.226, 2.218e-6
0.227, 2.220e-6
0.228, 2.231e-6
0.229, 2.236e-6
0.230, 2.253e-6
0.231, 2.257e-6
0.232, 2.264e-6
0.233, 2.272e-6
0.234, 2.278e-6
0.235, 2.284e-6
0.236, 2.299e-6
0.237, 2.307e-6
0.238, 2.313e-6
0.239, 2.322e-6
0.240, 2.328e-6
0.241, 2.345e-6
0.242, 2.351e-6
0.243, 2.350e-6
0.244, 2.375e-6
0.245, 2.388e-6
0.246, 2.397e-6
0.247, 2.409e-6
0.248, 2.424e-6
0.249, 2.432e-6
0.250, 2.452e-6
0.251, 2.459e-6
0.252, 2.476e-6
0.253, 2.491e-6
0.254, 2.500e-6
0.255, 2.519e-6
0.256, 2.528e-6
0.257, 2.549e-6
0.258, 2.562e-6
0.259, 2.574e-6
0.260, 2.593e-6
0.261, 2.613e-6
0.262, 2.624e-6
0.263, 2.647e-6
0.264, 2.661e-6
0.265, 2.679e-6
0.266, 2.695e-6
0.267, 2.714e-6
0.268, 2.728e-6
0.269, 2.745e-6
0.270, 2.768e-6
0.271, 2.787e-6
0.272, 2.802e-6
0.273, 2.825e-6
0.274, 2.845e-6
0.275, 2.859e-6
0.276, 2.883e-6
0.277, 2.904e-6
0.278, 2.919e-6
0.279, 2.942e-6
0.280, 2.964e-6
0.281, 2.992e-6
0.282, 3.007e-6
0.283, 3.022e-6
0.284, 3.045e-6
0.285, 3.065e-6
0.286, 3.079e-6
0.287, 3.099e-6
0.288, 3.118e-6
0.289, 3.145e-6
0.290, 3.161e-6
0.291, 3.181e-6
0.292, 3.200e-6
0.293, 3.220e-6
0.294, 3.228e-6
0.295, 3.253e-6
0.296, 3.269e-6
0.297, 3.292e-6
0.298, 3.302e-6
0.299, 3.315e-6
0.300, 3.344e-6
0.301, 3.352e-6
0.302, 3.373e-6
0.303, 3.392e-6
0.304, 3.401e-6
0.305, 3.421e-6
0.306, 3.434e-6
0.307, 3.453e-6
0.308, 3.469e-6
0.309, 3.481e-6
0.310, 3.495e-6
0.311, 3.510e-6
0.312, 3.526e-6
0.313, 3.545e-6
0.314, 3.553e-6
0.315, 3.565e-6
0.316, 3.583e-6
0.317, 3.599e-6
0.318, 3.612e-6
0.319, 3.627e-6
0.320, 3.628e-6
0.321, 3.656e-6
0.322, 3.673e-6
0.323, 3.685e-6
0.324, 3.708e-6
0.325, 3.725e-6
0.326, 3.745e-6
0.327, 3.764e-6
0.328, 3.787e-6
0.329, 3.811e-6
0.330, 3.840e-6
0.331, 3.859e-6
0.332, 3.896e-6
0.333, 3.938e-6
0.334, 3.955e-6
0.335, 3.988e-6
0.336, 4.017e-6
0.337, 4.058e-6
0.338, 4.096e-6
0.339, 4.130e-6
0.340, 4.182e-6
0.341, 4.230e-6
0.342, 4.270e-6
0.343, 4.323e-6
0.344, 4.376e-6
0.345, 4.425e-6
0.346, 4.483e-6
0.347, 4.550e-6
0.348, 4.630e-6
0.349, 4.699e-6
0.350, 4.766e-6
0.351, 4.845e-6
0.352, 4.925e-6
0.353, 5.008e-6
0.354, 5.101e-6
0.355, 5.190e-6
0.356, 5.297e-6
0.357, 5.398e-6
0.358, 5.485e-6
0.359, 5.593e-6
0.360, 5.719e-6
0.361, 5.838e-6
0.362, 5.963e-6
0.363, 6.084e-6
0.364, 6.219e-6
0.365, 6.360e-6
0.366, 6.511e-6
0.367, 6.666e-6
0.368, 6.817e-6
0.369, 6.981e-6
0.370, 7.147e-6
0.371, 7.284e-6
0.372, 7.482e-6
0.373, 7.684e-6
0.374, 7.874e-6
0.375, 8.081e-6
0.376, 8.290e-6
0.377, 8.512e-6
0.378, 8.737e-6
0.379, 8.957e-6
0.380, 9.222e-6
0.381, 9.458e-6
0.382, 9.724e-6
0.383, 9.980e-6
0.384, 1.033e-5
0.385, 1.059e-5
0.386, 1.088e-5
0.387, 1.116e-5
0.388, 1.148e-5
0.389, 1.180e-5
0.390, 1.213e-5
0.391, 1.251e-5
0.392, 1.284e-5
0.393, 1.327e-5
0.394, 1.364e-5
0.395, 1.399e-5
0.396, 1.445e-5
0.397, 1.479e-5
0.398, 1.527e-5
0.399, 1.575e-5
0.400, 1.620e-5
0.401, 1.672e-5
0.402, 1.716e-5
0.403, 1.767e-5
0.404, 1.823e-5
0.405, 1.883e-5
0.406, 1.933e-5
0.407, 1.993e-5
0.408, 2.051e-5
0.409, 2.089e-5
0.410, 2.145e-5
0.411, 2.217e-5
0.412, 2.290e-5
0.413, 2.368e-5
0.414, 2.427e-5
0.415, 2.504e-5
0.416, 2.576e-5
0.417, 2.655e-5
0.418, 2.737e-5
0.419, 2.813e-5
0.420, 2.902e-5
0.421, 2.986e-5
0.422, 3.058e-5
0.423, 3.146e-5
0.424, 3.237e-5
0.425, 3.327e-5
0.426, 3.425e-5
0.427, 3.514e-5
0.428, 3.616e-5
0.429, 3.713e-5
0.430, 3.809e-5
0.431, 3.915e-5
0.432, 4.020e-5
0.433, 4.127e-5
0.434, 4.236e-5
0.435, 4.362e-5
0.436, 4.475e-5
0.437, 4.583e-5
0.438, 4.688e-5
0.439, 4.806e-5
0.440, 4.907e-5
0.441, 5.040e-5
0.442, 5.156e-5
0.443, 5.261e-5
0.444, 5.385e-5
0.445, 5.504e-5
0.446, 5.625e-5
0.447, 5.742e-5
0.448, 5.828e-5
0.449, 5.973e-5
0.450, 6.092e-5
0.451, 6.195e-5
0.452, 6.331e-5
0.453, 6.435e-5
0.454, 6.552e-5
0.455, 6.676e-5
0.456, 6.785e-5
0.457, 6.913e-5
0.458, 7.022e-5
0.459, 7.115e-5
0.460, 7.226e-5
0.461, 7.320e-5
0.462, 7.427e-5
0.463, 7.548e-5
0.464, 7.626e-5
0.465, 7.735e-5
0.466, 7.833e-5
0.467, 7.904e-5
0.468, 7.987e-5
0.469, 8.101e-5
0.470, 8.168e-5
0.471, 8.241e-5
0.472, 8.312e-5
0.473, 8.374e-5
0.474, 8.451e-5
0.475, 8.500e-5
0.476, 8.586e-5
0.477, 8.648e-5
0.478, 8.692e-5
0.479, 8.746e-5
0.480, 8.778e-5
0.481, 8.849e-5
0.482, 8.873e-5
0.483, 8.905e-5
0.484, 8.954e-5
0.485, 8.978e-5
0.486, 9.030e-5
0.487, 9.023e-5
0.488, 9.062e-5
0.489, 9.083e-5
0.490, 9.088e-5
0.491, 9.090e-5
0.492, 9.094e-5
0.493, 9.110e-5
0.494, 9.107e-5
0.495, 9.096e-5
0.496, 9.103e-5
0.497, 9.101e-5
0.498, 9.084e-5
0.499, 9.055e-5
0.500, 9.052e-5
0.501, 9.043e-5
0.502, 9.021e-5
0.503, 9.003e-5
0.504, 8.977e-5
0.505, 8.965e-5
0.506, 8.930e-5
0.507, 8.907e-5
0.508, 8.885e-5
0.509, 8.856e-5
0.510, 8.818e-5
0.511, 8.791e-5
0.512, 8.768e-5
0.513, 8.733e-5
0.514, 8.695e-5
0.515, 8.650e-5
0.516, 8.618e-5
0.517, 8.579e-5
0.518, 8.536e-5
0.519, 8.500e-5
0.520, 8.454e-5
0.521, 8.418e-5
0.522, 8.379e-5
0.523, 8.331e-5
0.524, 8.292e-5
0.525, 8.238e-5
0.526, 8.201e-5
0.527, 8.164e-5
0.528, 8.117e-5
0.529, 8.080e-5
0.530, 8.032e-5
0.531, 7.983e-5
0.532, 7.949e-5
0.533, 7.904e-5
0.534, 7.859e-5
0.535, 7.817e-5
0.536, 7.771e-5
0.537, 7.734e-5
0.538, 7.695e-5
0.539, 7.647e-5
0.540, 7.605e-5
0.541, 7.561e-5
0.542, 7.521e-5
0.543, 7.479e-5
0.544, 7.434e-5
0.545, 7.396e-5
0.546, 7.355e-5
0.547, 7.314e-5
0.548, 7.274e-5
0.549, 7.234e-5
0.550, 7.191e-5
0.551, 7.151e-5
0.552, 7.115e-5
0.553, 7.077e-5
0.554, 7.038e-5
0.555, 7.000e-5
0.556, 6.964e-5
0.557, 6.928e-5
0.558, 6.891e-5
0.559, 6.855e-5
0.560, 6.818e-5
0.561, 6.785e-5
0.562, 6.749e-5
0.563, 6.713e-5
0.564, 6.680e-5
0.565, 6.645e-5
0.566, 6.613e-5
0.567, 6.580e-5
0.568, 6.547e-5
0.569, 6.516e-5
0.570, 6.484e-5
0.571, 6.454e-5
0.572, 6.423e-5
0.573, 6.393e-5
0.574, 6.362e-5
0.575, 6.332e-5
0.576, 6.301e-5
0.577, 6.274e-5
0.578, 6.246e-5
0.579, 6.216e-5
0.580, 6.189e-5
0.581, 6.162e-5
0.582, 6.135e-5
0.583, 6.108e-5
0.584, 6.082e-5
0.585, 6.056e-5
0.586, 6.031e-5
0.587, 6.006e-5
0.588, 5.981e-5
0.589, 5.958e-5
0.590, 5.932e-5
0.591, 5.908e-5
0.592, 5.884e-5
0.593, 5.861e-5
0.594, 5.838e-5
0.595, 5.815e-5
0.596, 5.793e-5
0.597, 5.771e-5
0.598, 5.749e-5
0.599, 5.727e-5
0.600, 5.706e-5
0.601, 5.685e-5
0.602, 5.663e-5
0.603, 5.643e-5
0.604, 5.624e-5
0.605, 5.603e-5
0.606, 5.584e-5
0.607, 5.565e-5
0.608, 5.546e-5
0.609, 5.527e-5
0.610, 5.508e-5
0.611, 5.489e-5
0.612, 5.472e-5
0.613, 5.454e-5
0.614, 5.433e-5
0.615, 5.416e-5
0.616, 5.399e-5
0.617, 5.383e-5
0.618, 5.366e-5
0.619, 5.349e-5
0.620, 5.333e-5
0.621, 5.317e-5
0.622, 5.300e-5
0.623, 5.285e-5
0.624, 5.269e-5
0.625, 5.254e-5
0.626, 5.239e-5
0.627, 5.223e-5
0.628, 5.208e-5
0.629, 5.194e-5
0.630, 5.179e-5
0.631, 5.165e-5
0.632, 5.151e-5
0.633, 5.136e-5
0.634, 5.123e-5
0.635, 5.108e-5
0.636, 5.095e-5
0.637, 5.082e-5
0.638, 5.069e-5
0.639, 5.055e-5
0.640, 5.043e-5
0.641, 5.030e-5
0.642, 5.017e-5
0.643, 5.003e-5
0.644, 4.992e-5
0.645, 4.980e-5
0.646, 4.968e-5
0.647, 4.956e-5
0.648, 4.944e-5
0.649, 4.932e-5
0.650, 4.920e-5
0.651, 4.908e-5
0.652, 4.897e-5
0.653, 4.885e-5
0.654, 4.875e-5
0.655, 4.864e-5
0.656, 4.853e-5
0.657, 4.843e-5
0.658, 4.832e-5
0.659, 4.821e-5
0.660, 4.811e-5
0.661, 4.801e-5
0.662, 4.790e-5
0.663, 4.780e-5
0.664, 4.770e-5
0.665, 4.760e-5
0.666, 4.751e-5
0.667, 4.740e-5
0.668, 4.731e-5
0.669, 4.722e-5
0.670, 4.712e-5
0.671, 4.703e-5
0.672, 4.694e-5
0.673, 4.685e-5
0.674, 4.676e-5
0.675, 4.666e-5
0.676, 4.658e-5
0.677, 4.649e-5
0.678, 4.639e-5
0.679, 4.632e-5
0.680, 4.623e-5
0.681, 4.615e-5
0.682, 4.607e-5
0.683, 4.598e-5
0.684, 4.590e-5
0.685, 4.582e-5
0.686, 4.574e-5
0.687, 4.566e-5
0.688, 4.559e-5
0.689, 4.551e-5
0.690, 4.543e-5
0.691, 4.536e-5
0.692, 4.528e-5
0.693, 4.520e-5
0.694, 4.513e-5
0.695, 4.505e-5
0.696, 4.498e-5
0.697, 4.491e-5
0.698, 4.484e-5
0.699, 4.477e-5
0.700, 4.470e-5
0.701, 4.463e-5
0.702, 4.456e-5
0.703, 4.449e-5
0.704, 4.442e-5
0.705, 4.436e-5
0.706, 4.429e-5
0.707, 4.423e-5
0.708, 4.416e-5
0.709, 4.410e-5
0.710, 4.403e-5
0.711, 4.397e-5
0.712, 4.391e-5
0.713, 4.385e-5
0.714, 4.379e-5
0.715, 4.372e-5
0.716, 4.367e-5
0.717, 4.361e-5
0.718, 4.354e-5
0.719, 4.348e-5
0.720, 4.343e-5
0.721, 4.337e-5
0.722, 4.331e-5
0.723, 4.325e-5
0.724, 4.320e-5
0.725, 4.314e-5
0.726, 4.309e-5
0.727, 4.303e-5
0.728, 4.298e-5
0.729, 4.292e-5
0.730, 4.287e-5
0.731, 4.281e-5
0.732, 4.276e-5
0.733, 4.271e-5
0.734, 4.266e-5
0.735, 4.261e-5
0.736, 4.256e-5
0.737, 4.251e-5
0.738, 4.246e-5
0.739, 4.241e-5
0.740, 4.236e-5
0.741, 4.231e-5
0.742, 4.227e-5
0.743, 4.222e-5
0.744, 4.216e-5
0.745, 4.212e-5
0.746, 4.207e-5
0.747, 4.202e-5
0.748, 4.198e-5
0.749, 4.193e-5
0.750, 4.188e-5
0.751, 4.184e-5
0.752, 4.179e-5
0.753, 4.175e-5
0.754, 4.171e-5
0.755, 4.166e-5
0.756, 4.162e-5
0.757, 4.157e-5
0.758, 4.153e-5
0.759, 4.149e-5
0.760, 4.144e-5
0.761, 4.141e-5
0.762, 4.136e-5
0.763, 4.132e-5
0.764, 4.128e-5
0.765, 4.124e-5
0.766, 4.120e-5
0.767, 4.116e-5
0.768, 4.112e-5
0.769, 4.108e-5
0.770, 4.104e-5
0.771, 4.100e-5
0.772, 4.096e-5
0.773, 4.092e-5
0.774, 4.089e-5
0.775, 4.085e-5
0.776, 4.081e-5
0.777, 4.078e-5
0.778, 4.074e-5
0.779, 4.071e-5
0.780, 4.067e-5
0.781, 4.062e-5
0.782, 4.059e-5
0.783, 4.056e-5
0.784, 4.052e-5
0.785, 4.049e-5
0.786, 4.046e-5
0.787, 4.042e-5
0.788, 4.039e-5
0.789, 4.035e-5
0.790, 4.032e-5
0.791, 4.029e-5
0.792, 4.025e-5
0.793, 4.023e-5
0.794, 4.019e-5
0.795, 4.015e-5
0.796, 4.012e-5
0.797, 4.009e-5
0.798, 4.006e-5
0.799, 4.002e-5
0.800, 3.999e-5
0.801, 3.996e-5
0.802, 3.993e-5
0.803, 3.990e-5
0.804, 3.987e-5
0.805, 3.984e-5
0.806, 3.980e-5
0.807, 3.978e-5
0.808, 3.975e-5
0.809, 3.972e-5
0.810, 3.969e-5
0.811, 3.966e-5
0.812, 3.963e-5
0.813, 3.960e-5
0.814, 3.958e-5
0.815, 3.955e-5
0.816, 3.952e-5
0.817, 3.950e-5
0.818, 3.947e-5
0.819, 3.942e-5
0.820, 3.941e-5
0.821, 3.938e-5
0.822, 3.935e-5
0.823, 3.933e-5
0.824, 3.931e-5
0.825, 3.928e-5
0.826, 3.925e-5
0.827, 3.923e-5
0.828, 3.921e-5
0.829, 3.918e-5
0.830, 3.915e-5
0.831, 3.913e-5
0.832, 3.910e-5
0.833, 3.908e-5
0.834, 3.906e-5
0.835, 3.903e-5
0.836, 3.901e-5
0.837, 3.899e-5
0.838, 3.896e-5
0.839, 3.893e-5
0.840, 3.891e-5
0.841, 3.889e-5
0.842, 3.886e-5
0.843, 3.884e-5
0.844, 3.882e-5
0.845, 3.880e-5
0.846, 3.877e-5
0.847, 3.875e-5
0.848, 3.873e-5
0.849, 3.871e-5
0.850, 3.868e-5
0.851, 3.866e-5
0.852, 3.864e-5
0.853, 3.862e-5
0.854, 3.860e-5
0.855, 3.858e-5
0.856, 3.856e-5
0.857, 3.854e-5
0.858, 3.852e-5
0.859, 3.850e-5
0.860, 3.848e-5
0.861, 3.846e-5
0.862, 3.844e-5
0.863, 3.842e-5
0.864, 3.840e-5
0.865, 3.838e-5
0.866, 3.836e-5
0.867, 3.834e-5
0.868, 3.833e-5
0.869, 3.831e-5
0.870, 3.829e-5
0.871, 3.827e-5
0.872, 3.825e-5
0.873, 3.823e-5
0.874, 3.821e-5
0.875, 3.819e-5
0.876, 3.818e-5
0.877, 3.816e-5
0.878, 3.815e-5
0.879, 3.813e-5
0.880, 3.811e-5
0.881, 3.810e-5
0.882, 3.808e-5
0.883, 3.806e-5
0.884, 3.805e-5
0.885, 3.803e-5
0.886, 3.801e-5
0.887, 3.800e-5
0.888, 3.798e-5
0.889, 3.797e-5
0.890, 3.795e-5
0.891, 3.794e-5
0.892, 3.792e-5
0.893, 3.791e-5
0.894, 3.789e-5
0.895, 3.788e-5
0.896, 3.787e-5
0.897, 3.785e-5
0.898, 3.784e-5
0.899, 3.782e-5
0.900, 3.781e-5
0.901, 3.779e-5
0.902, 3.778e-5
0.903, 3.777e-5
0.904, 3.775e-5
0.905, 3.774e-5
0.906, 3.772e-5
0.907, 3.771e-5
0.908, 3.769e-5
0.909, 3.768e-5
0.910, 3.766e-5
0.911, 3.766e-5
0.912, 3.764e-5
0.913, 3.764e-5
0.914, 3.762e-5
0.915, 3.761e-5
0.916, 3.760e-5
0.917, 3.759e-5
0.918, 3.757e-5
0.919, 3.756e-5
0.920, 3.755e-5
0.921, 3.754e-5
0.922, 3.753e-5
0.923, 3.751e-5
0.924, 3.750e-5
0.925, 3.749e-5
0.926, 3.748e-5
0.927, 3.747e-5
0.928, 3.746e-5
0.929, 3.745e-5
0.930, 3.744e-5
0.931, 3.743e-5
0.932, 3.742e-5
0.933, 3.741e-5
0.934, 3.739e-5
0.935, 3.739e-5
0.936, 3.737e-5
0.937, 3.737e-5
0.938, 3.736e-5
0.939, 3.734e-5
0.940, 3.734e-5
0.941, 3.733e-5
0.942, 3.732e-5
0.943, 3.731e-5
0.944, 3.730e-5
0.945, 3.729e-5
0.946, 3.728e-5
0.947, 3.728e-5
0.948, 3.727e-5
0.949, 3.726e-5
0.950, 3.724e-5
0.951, 3.724e-5
0.952, 3.723e-5
0.953, 3.722e-5
0.954, 3.721e-5
0.955, 3.720e-5
0.956, 3.720e-5
0.957, 3.718e-5
0.958, 3.718e-5
0.959, 3.717e-5
0.960, 3.716e-5
0.961, 3.716e-5
0.962, 3.715e-5
0.963, 3.714e-5
0.964, 3.714e-5
0.965, 3.713e-5
0.966, 3.712e-5
0.967, 3.712e-5
0.968, 3.711e-5
0.969, 3.710e-5
0.970, 3.709e-5
0.971, 3.709e-5
0.972, 3.708e-5
0.973, 3.708e-5
0.974, 3.707e-5
0.975, 3.706e-5
0.976, 3.706e-5
0.977, 3.705e-5
0.978, 3.704e-5
0.979, 3.704e-5
0.980, 3.704e-5
0.981, 3.703e-5
0.982, 3.702e-5
0.983, 3.702e-5
0.984, 3.702e-5
0.985, 3.700e-5
0.986, 3.700e-5
0.987, 3.700e-5
0.988, 3.699e-5
0.989, 3.699e-5
0.990, 3.698e-5
0.991, 3.698e-5
0.992, 3.698e-5
0.993, 3.697e-5
0.994, 3.697e-5
0.995, 3.696e-5
0.996, 3.697e-5
0.997, 3.696e-5
0.998, 3.696e-5
0.999, 3.696e-5
1.000, 3.655e-5
0.999, 3.632e-5
0.998, 3.623e-5
0.997, 3.616e-5
0.996, 3.609e-5
0.995, 3.603e-5
0.994, 3.598e-5
0.993, 3.593e-5
0.992, 3.589e-5
0.991, 3.585e-5
0.990, 3.581e-5
0.989, 3.577e-5
0.988, 3.573e-5
0.987, 3.570e-5
0.986, 3.567e-5
0.985, 3.564e-5
0.984, 3.560e-5
0.983, 3.558e-5
0.982, 3.555e-5
0.981, 3.552e-5
0.980, 3.548e-5
0.979, 3.546e-5
0.978, 3.544e-5
0.977, 3.541e-5
0.976, 3.539e-5
0.975, 3.536e-5
0.974, 3.534e-5
0.973, 3.532e-5
0.972, 3.529e-5
0.971, 3.527e-5
0.970, 3.525e-5
0.969, 3.522e-5
0.968, 3.521e-5
0.967, 3.519e-5
0.966, 3.517e-5
0.965, 3.515e-5
0.964, 3.513e-5
0.963, 3.511e-5
0.962, 3.510e-5
0.961, 3.507e-5
0.960, 3.506e-5
0.959, 3.503e-5
0.958, 3.501e-5
0.957, 3.500e-5
0.956, 3.498e-5
0.955, 3.496e-5
0.954, 3.495e-5
0.953, 3.493e-5
0.952, 3.491e-5
0.951, 3.490e-5
0.950, 3.488e-5
0.949, 3.487e-5
0.948, 3.484e-5
0.947, 3.483e-5
0.946, 3.482e-5
0.945, 3.480e-5
0.944, 3.478e-5
0.943, 3.477e-5
0.942, 3.475e-5
0.941, 3.474e-5
0.940, 3.473e-5
0.939, 3.471e-5
0.938, 3.470e-5
0.937, 3.468e-5
0.936, 3.467e-5
0.935, 3.467e-5
0.934, 3.465e-5
0.933, 3.463e-5
0.932, 3.461e-5
0.931, 3.460e-5
0.930, 3.459e-5
0.929, 3.458e-5
0.928, 3.456e-5
0.927, 3.455e-5
0.926, 3.454e-5
0.925, 3.452e-5
0.924, 3.451e-5
0.923, 3.449e-5
0.922, 3.448e-5
0.921, 3.447e-5
0.920, 3.446e-5
0.919, 3.445e-5
0.918, 3.444e-5
0.917, 3.443e-5
0.916, 3.442e-5
0.915, 3.440e-5
0.914, 3.440e-5
0.913, 3.438e-5
0.912, 3.437e-5
0.911, 3.436e-5
0.910, 3.435e-5
0.909, 3.435e-5
0.908, 3.432e-5
0.907, 3.431e-5
0.906, 3.430e-5
0.905, 3.429e-5
0.904, 3.428e-5
0.903, 3.427e-5
0.902, 3.426e-5
0.901, 3.425e-5
0.900, 3.424e-5
0.899, 3.423e-5
0.898, 3.423e-5
0.897, 3.421e-5
0.896, 3.419e-5
0.895, 3.419e-5
0.894, 3.418e-5
0.893, 3.417e-5
0.892, 3.416e-5
0.891, 3.415e-5
0.890, 3.415e-5
0.889, 3.413e-5
0.888, 3.412e-5
0.887, 3.411e-5
0.886, 3.411e-5
0.885, 3.409e-5
0.884, 3.408e-5
0.883, 3.407e-5
0.882, 3.407e-5
0.881, 3.405e-5
0.880, 3.404e-5
0.879, 3.403e-5
0.878, 3.403e-5
0.877, 3.402e-5
0.876, 3.401e-5
0.875, 3.400e-5
0.874, 3.400e-5
0.873, 3.398e-5
0.872, 3.397e-5
0.871, 3.397e-5
0.870, 3.396e-5
0.869, 3.395e-5
0.868, 3.394e-5
0.867, 3.393e-5
0.866, 3.393e-5
0.865, 3.391e-5
0.864, 3.391e-5
0.863, 3.390e-5
0.862, 3.389e-5
0.861, 3.388e-5
0.860, 3.387e-5
0.859, 3.386e-5
0.858, 3.386e-5
0.857, 3.385e-5
0.856, 3.384e-5
0.855, 3.383e-5
0.854, 3.382e-5
0.853, 3.382e-5
0.852, 3.381e-5
0.851, 3.380e-5
0.850, 3.379e-5
0.849, 3.378e-5
0.848, 3.377e-5
0.847, 3.376e-5
0.846, 3.376e-5
0.845, 3.374e-5
0.844, 3.374e-5
0.843, 3.374e-5
0.842, 3.373e-5
0.841, 3.372e-5
0.840, 3.372e-5
0.839, 3.371e-5
0.838, 3.370e-5
0.837, 3.370e-5
0.836, 3.369e-5
0.835, 3.368e-5
0.834, 3.367e-5
0.833, 3.366e-5
0.832, 3.366e-5
0.831, 3.365e-5
0.830, 3.364e-5
0.829, 3.364e-5
0.828, 3.363e-5
0.827, 3.362e-5
0.826, 3.362e-5
0.825, 3.361e-5
0.824, 3.360e-5
0.823, 3.360e-5
0.822, 3.359e-5
0.821, 3.358e-5
0.820, 3.358e-5
0.819, 3.357e-5
0.818, 3.356e-5
0.817, 3.355e-5
0.816, 3.355e-5
0.815, 3.354e-5
0.814, 3.353e-5
0.813, 3.353e-5
0.812, 3.352e-5
0.811, 3.351e-5
0.810, 3.351e-5
0.809, 3.350e-5
0.808, 3.349e-5
0.807, 3.349e-5
0.806, 3.348e-5
0.805, 3.348e-5
0.804, 3.347e-5
0.803, 3.347e-5
0.802, 3.347e-5
0.801, 3.345e-5
0.800, 3.345e-5
0.799, 3.344e-5
0.798, 3.344e-5
0.797, 3.343e-5
0.796, 3.342e-5
0.795, 3.341e-5
0.794, 3.340e-5
0.793, 3.340e-5
0.792, 3.339e-5
0.791, 3.339e-5
0.790, 3.338e-5
0.789, 3.338e-5
0.788, 3.337e-5
0.787, 3.337e-5
0.786, 3.337e-5
0.785, 3.336e-5
0.784, 3.335e-5
0.783, 3.334e-5
0.782, 3.334e-5
0.781, 3.334e-5
0.780, 3.332e-5
0.779, 3.332e-5
0.778, 3.332e-5
0.777, 3.331e-5
0.776, 3.330e-5
0.775, 3.330e-5
0.774, 3.330e-5
0.773, 3.329e-5
0.772, 3.328e-5
0.771, 3.328e-5
0.770, 3.327e-5
0.769, 3.327e-5
0.768, 3.326e-5
0.767, 3.326e-5
0.766, 3.325e-5
0.765, 3.325e-5
0.764, 3.324e-5
0.763, 3.324e-5
0.762, 3.324e-5
0.761, 3.323e-5
0.760, 3.322e-5
0.759, 3.322e-5
0.758, 3.321e-5
0.757, 3.321e-5
0.756, 3.320e-5
0.755, 3.320e-5
0.754, 3.319e-5
0.753, 3.318e-5
0.752, 3.318e-5
0.751, 3.318e-5
0.750, 3.317e-5
0.749, 3.317e-5
0.748, 3.316e-5
0.747, 3.316e-5
0.746, 3.315e-5
0.745, 3.314e-5
0.744, 3.314e-5
0.743, 3.313e-5
0.742, 3.313e-5
0.741, 3.312e-5
0.740, 3.312e-5
0.739, 3.312e-5
0.738, 3.311e-5
0.737, 3.310e-5
0.736, 3.310e-5
0.735, 3.310e-5
0.734, 3.309e-5
0.733, 3.309e-5
0.732, 3.307e-5
0.731, 3.307e-5
0.730, 3.307e-5
0.729, 3.306e-5
0.728, 3.306e-5
0.727, 3.305e-5
0.726, 3.305e-5
0.725, 3.305e-5
0.724, 3.304e-5
0.723, 3.304e-5
0.722, 3.303e-5
0.721, 3.303e-5
0.720, 3.302e-5
0.719, 3.302e-5
0.718, 3.301e-5
0.717, 3.300e-5
0.716, 3.300e-5
0.715, 3.300e-5
0.714, 3.300e-5
0.713, 3.299e-5
0.712, 3.298e-5
0.711, 3.298e-5
0.710, 3.298e-5
0.709, 3.297e-5
0.708, 3.296e-5
0.707, 3.296e-5
0.706, 3.295e-5
0.705, 3.295e-5
0.704, 3.295e-5
0.703, 3.294e-5
0.702, 3.293e-5
0.701, 3.293e-5
0.700, 3.292e-5
0.699, 3.292e-5
0.698, 3.292e-5
0.697, 3.291e-5
0.696, 3.290e-5
0.695, 3.290e-5
0.694, 3.289e-5
0.693, 3.289e-5
0.692, 3.287e-5
0.691, 3.287e-5
0.690, 3.287e-5
0.689, 3.286e-5
0.688, 3.286e-5
0.687, 3.285e-5
0.686, 3.284e-5
0.685, 3.284e-5
0.684, 3.283e-5
0.683, 3.282e-5
0.682, 3.282e-5
0.681, 3.281e-5
0.680, 3.281e-5
0.679, 3.281e-5
0.678, 3.280e-5
0.677, 3.279e-5
0.676, 3.279e-5
0.675, 3.278e-5
0.674, 3.278e-5
0.673, 3.277e-5
0.672, 3.276e-5
0.671, 3.276e-5
0.670, 3.275e-5
0.669, 3.274e-5
0.668, 3.274e-5
0.667, 3.272e-5
0.666, 3.273e-5
0.665, 3.271e-5
0.664, 3.271e-5
0.663, 3.270e-5
0.662, 3.269e-5
0.661, 3.269e-5
0.660, 3.267e-5
0.659, 3.267e-5
0.658, 3.266e-5
0.657, 3.265e-5
0.656, 3.264e-5
0.655, 3.263e-5
0.654, 3.263e-5
0.653, 3.262e-5
0.652, 3.260e-5
0.651, 3.260e-5
0.650, 3.259e-5
0.649, 3.258e-5
0.648, 3.257e-5
0.647, 3.256e-5
0.646, 3.255e-5
0.645, 3.254e-5
0.644, 3.253e-5
0.643, 3.252e-5
0.642, 3.250e-5
0.641, 3.249e-5
0.640, 3.246e-5
0.639, 3.246e-5
0.638, 3.245e-5
0.637, 3.244e-5
0.636, 3.242e-5
0.635, 3.241e-5
0.634, 3.240e-5
0.633, 3.238e-5
0.632, 3.236e-5
0.631, 3.235e-5
0.630, 3.233e-5
0.629, 3.231e-5
0.628, 3.230e-5
0.627, 3.228e-5
0.626, 3.227e-5
0.625, 3.224e-5
0.624, 3.223e-5
0.623, 3.221e-5
0.622, 3.219e-5
0.621, 3.217e-5
0.620, 3.214e-5
0.619, 3.212e-5
0.618, 3.210e-5
0.617, 3.207e-5
0.616, 3.204e-5
0.615, 3.204e-5
0.614, 3.201e-5
0.613, 3.197e-5
0.612, 3.194e-5
0.611, 3.191e-5
0.610, 3.188e-5
0.609, 3.185e-5
0.608, 3.181e-5
0.607, 3.179e-5
0.606, 3.175e-5
0.605, 3.171e-5
0.604, 3.167e-5
0.603, 3.163e-5
0.602, 3.160e-5
0.601, 3.155e-5
0.600, 3.151e-5
0.599, 3.147e-5
0.598, 3.142e-5
0.597, 3.137e-5
0.596, 3.132e-5
0.595, 3.127e-5
0.594, 3.122e-5
0.593, 3.116e-5
0.592, 3.110e-5
0.591, 3.104e-5
0.590, 3.097e-5
0.589, 3.089e-5
0.588, 3.083e-5
0.587, 3.076e-5
0.586, 3.070e-5
0.585, 3.062e-5
0.584, 3.054e-5
0.583, 3.047e-5
0.582, 3.038e-5
0.581, 3.030e-5
0.580, 3.021e-5
0.579, 3.012e-5
0.578, 3.002e-5
0.577, 2.992e-5
0.576, 2.984e-5
0.575, 2.971e-5
0.574, 2.961e-5
0.573, 2.949e-5
0.572, 2.936e-5
0.571, 2.925e-5
0.570, 2.912e-5
0.569, 2.898e-5
0.568, 2.885e-5
0.567, 2.870e-5
0.566, 2.856e-5
0.565, 2.840e-5
0.564, 2.824e-5
0.563, 2.808e-5
0.562, 2.791e-5
0.561, 2.772e-5
0.560, 2.754e-5
0.559, 2.735e-5
0.558, 2.715e-5
0.557, 2.696e-5
0.556, 2.673e-5
0.555, 2.651e-5
0.554, 2.629e-5
0.553, 2.605e-5
0.552, 2.581e-5
0.551, 2.557e-5
0.550, 2.531e-5
0.549, 2.503e-5
0.548, 2.474e-5
0.547, 2.444e-5
0.546, 2.415e-5
0.545, 2.383e-5
0.544, 2.351e-5
0.543, 2.316e-5
0.542, 2.281e-5
0.541, 2.247e-5
0.540, 2.206e-5
0.539, 2.169e-5
0.538, 2.119e-5
0.537, 2.084e-5
0.536, 2.042e-5
0.535, 1.994e-5
0.534, 1.951e-5
0.533, 1.906e-5
0.532, 1.854e-5
0.531, 1.806e-5
0.530, 1.758e-5
0.529, 1.701e-5
0.528, 1.646e-5
0.527, 1.587e-5
0.526, 1.530e-5
0.525, 1.486e-5
0.524, 1.414e-5
0.523, 1.349e-5
0.522, 1.284e-5
0.521, 1.214e-5
0.520, 1.143e-5
0.519, 1.073e-5
0.518, 1.001e-5
0.517, 9.249e-6
0.516, 8.457e-6
0.515, 7.659e-6
0.514, 6.855e-6
0.513, 5.983e-6
0.512, 4.997e-6
0.511, 4.141e-6
0.510, 3.277e-6
0.509, 2.396e-6
0.508, 1.405e-6
0.507, 5.292e-7
0.506, -4.815e-7
0.505, -1.455e-6
0.504, -2.493e-6
0.503, -3.572e-6
0.502, -4.664e-6
0.501, -5.665e-6
0.500, -6.678e-6
0.499, -7.664e-6
0.498, -8.947e-6
0.497, -1.012e-5
0.496, -1.118e-5
0.495, -1.249e-5
0.494, -1.362e-5
0.493, -1.473e-5
0.492, -1.599e-5
0.491, -1.726e-5
0.490, -1.834e-5
0.489, -1.966e-5
0.488, -2.087e-5
0.487, -2.234e-5
0.486, -2.353e-5
0.485, -2.462e-5
0.484, -2.600e-5
0.483, -2.719e-5
0.482, -2.836e-5
0.481, -2.960e-5
0.480, -3.084e-5
0.479, -3.218e-5
0.478, -3.318e-5
0.477, -3.426e-5
0.476, -3.567e-5
0.475, -3.674e-5
0.474, -3.747e-5
0.473, -3.873e-5
0.472, -3.983e-5
0.471, -4.111e-5
0.470, -4.217e-5
0.469, -4.309e-5
0.468, -4.412e-5
0.467, -4.496e-5
0.466, -4.593e-5
0.465, -4.697e-5
0.464, -4.786e-5
0.463, -4.878e-5
0.462, -4.946e-5
0.461, -5.017e-5
0.460, -5.093e-5
0.459, -5.171e-5
0.458, -5.223e-5
0.457, -5.291e-5
0.456, -5.361e-5
0.455, -5.418e-5
0.454, -5.462e-5
0.453, -5.517e-5
0.452, -5.561e-5
0.451, -5.612e-5
0.450, -5.643e-5
0.449, -5.678e-5
0.448, -5.678e-5
0.447, -5.729e-5
0.446, -5.755e-5
0.445, -5.770e-5
0.444, -5.801e-5
0.443, -5.816e-5
0.442, -5.819e-5
0.441, -5.833e-5
0.440, -5.842e-5
0.439, -5.840e-5
0.438, -5.843e-5
0.437, -5.834e-5
0.436, -5.843e-5
0.435, -5.853e-5
0.434, -5.822e-5
0.433, -5.812e-5
0.432, -5.798e-5
0.431, -5.779e-5
0.430, -5.756e-5
0.429, -5.731e-5
0.428, -5.716e-5
0.427, -5.687e-5
0.426, -5.656e-5
0.425, -5.634e-5
0.424, -5.604e-5
0.423, -5.561e-5
0.422, -5.529e-5
0.421, -5.499e-5
0.420, -5.473e-5
0.419, -5.432e-5
0.418, -5.395e-5
0.417, -5.356e-5
0.416, -5.319e-5
0.415, -5.281e-5
0.414, -5.241e-5
0.413, -5.198e-5
0.412, -5.163e-5
0.411, -5.120e-5
0.410, -5.040e-5
0.409, -5.008e-5
0.408, -4.976e-5
0.407, -4.942e-5
0.406, -4.896e-5
0.405, -4.855e-5
0.404, -4.815e-5
0.403, -4.770e-5
0.402, -4.727e-5
0.401, -4.686e-5
0.400, -4.642e-5
0.399, -4.598e-5
0.398, -4.555e-5
0.397, -4.504e-5
0.396, -4.466e-5
0.395, -4.425e-5
0.394, -4.380e-5
0.393, -4.339e-5
0.392, -4.297e-5
0.391, -4.254e-5
0.390, -4.216e-5
0.389, -4.170e-5
0.388, -4.129e-5
0.387, -4.089e-5
0.386, -4.048e-5
0.385, -4.009e-5
0.384, -3.975e-5
0.383, -3.931e-5
0.382, -3.890e-5
0.381, -3.849e-5
0.380, -3.813e-5
0.379, -3.773e-5
0.378, -3.734e-5
0.377, -3.697e-5
0.376, -3.660e-5
0.375, -3.624e-5
0.374, -3.587e-5
0.373, -3.550e-5
0.372, -3.516e-5
0.371, -3.479e-5
0.370, -3.445e-5
0.369, -3.411e-5
0.368, -3.376e-5
0.367, -3.344e-5
0.366, -3.310e-5
0.365, -3.277e-5
0.364, -3.246e-5
0.363, -3.214e-5
0.362, -3.182e-5
0.361, -3.152e-5
0.360, -3.121e-5
0.359, -3.089e-5
0.358, -3.059e-5
0.357, -3.030e-5
0.356, -3.001e-5
0.355, -2.972e-5
0.354, -2.944e-5
0.353, -2.917e-5
0.352, -2.889e-5
0.351, -2.861e-5
0.350, -2.835e-5
0.349, -2.808e-5
0.348, -2.782e-5
0.347, -2.756e-5
0.346, -2.729e-5
0.345, -2.705e-5
0.344, -2.681e-5
0.343, -2.655e-5
0.342, -2.631e-5
0.341, -2.607e-5
0.340, -2.584e-5
0.339, -2.561e-5
0.338, -2.538e-5
0.337, -2.516e-5
0.336, -2.493e-5
0.335, -2.471e-5
0.334, -2.450e-5
0.333, -2.430e-5
0.332, -2.408e-5
0.331, -2.387e-5
0.330, -2.366e-5
0.329, -2.345e-5
0.328, -2.325e-5
0.327, -2.305e-5
0.326, -2.286e-5
0.325, -2.266e-5
0.324, -2.247e-5
0.323, -2.229e-5
0.322, -2.210e-5
0.321, -2.192e-5
0.320, -2.173e-5
0.319, -2.156e-5
0.318, -2.139e-5
0.317, -2.121e-5
0.316, -2.105e-5
0.315, -2.087e-5
0.314, -2.071e-5
0.313, -2.054e-5
0.312, -2.038e-5
0.311, -2.022e-5
0.310, -2.006e-5
0.309, -1.991e-5
0.308, -1.976e-5
0.307, -1.961e-5
0.306, -1.945e-5
0.305, -1.931e-5
0.304, -1.916e-5
0.303, -1.902e-5
0.302, -1.887e-5
0.301, -1.872e-5
0.300, -1.859e-5
0.299, -1.845e-5
0.298, -1.831e-5
0.297, -1.818e-5
0.296, -1.804e-5
0.295, -1.791e-5
0.294, -1.778e-5
0.293, -1.765e-5
0.292, -1.753e-5
0.291, -1.740e-5
0.290, -1.728e-5
0.289, -1.716e-5
0.288, -1.703e-5
0.287, -1.691e-5
0.286, -1.679e-5
0.285, -1.668e-5
0.284, -1.656e-5
0.283, -1.645e-5
0.282, -1.634e-5
0.281, -1.622e-5
0.280, -1.611e-5
0.279, -1.600e-5
0.278, -1.589e-5
0.277, -1.578e-5
0.276, -1.568e-5
0.275, -1.557e-5
0.274, -1.546e-5
0.273, -1.536e-5
0.272, -1.526e-5
0.271, -1.516e-5
0.270, -1.506e-5
0.269, -1.496e-5
0.268, -1.486e-5
0.267, -1.477e-5
0.266, -1.467e-5
0.265, -1.458e-5
0.264, -1.448e-5
0.263, -1.439e-5
0.262, -1.430e-5
0.261, -1.421e-5
0.260, -1.412e-5
0.259, -1.403e-5
0.258, -1.394e-5
0.257, -1.385e-5
0.256, -1.377e-5
0.255, -1.368e-5
0.254, -1.360e-5
0.253, -1.352e-5
0.252, -1.344e-5
0.251, -1.335e-5
0.250, -1.327e-5
0.249, -1.319e-5
0.248, -1.312e-5
0.247, -1.303e-5
0.246, -1.296e-5
0.245, -1.288e-5
0.244, -1.280e-5
0.243, -1.272e-5
0.242, -1.265e-5
0.241, -1.258e-5
0.240, -1.251e-5
0.239, -1.243e-5
0.238, -1.236e-5
0.237, -1.228e-5
0.236, -1.222e-5
0.235, -1.215e-5
0.234, -1.207e-5
0.233, -1.201e-5
0.232, -1.194e-5
0.231, -1.188e-5
0.230, -1.180e-5
0.229, -1.173e-5
0.228, -1.167e-5
0.227, -1.160e-5
0.226, -1.154e-5
0.225, -1.147e-5
0.224, -1.141e-5
0.223, -1.134e-5
0.222, -1.128e-5
0.221, -1.122e-5
0.220, -1.117e-5
0.219, -1.111e-5
0.218, -1.103e-5
0.217, -1.097e-5
0.216, -1.092e-5
0.215, -1.086e-5
0.214, -1.080e-5
0.213, -1.074e-5
0.212, -1.068e-5
0.211, -1.062e-5
0.210, -1.057e-5
0.209, -1.051e-5
0.208, -1.046e-5
0.207, -1.040e-5
0.206, -1.034e-5
0.205, -1.027e-5
0.204, -1.023e-5
0.203, -1.018e-5
0.202, -1.012e-5
0.201, -1.008e-5
0.200, -1.002e-5
0.199, -9.969e-6
0.198, -9.920e-6
0.197, -9.863e-6
0.196, -9.816e-6
0.195, -9.770e-6
0.194, -9.718e-6
0.193, -9.672e-6
0.192, -9.614e-6
0.191, -9.573e-6
0.190, -9.521e-6
0.189, -9.471e-6
0.188, -9.428e-6
0.187, -9.380e-6
0.186, -9.331e-6
0.185, -9.287e-6
0.184, -9.241e-6
0.183, -9.195e-6
0.182, -9.147e-6
0.181, -9.104e-6
0.180, -9.068e-6
0.179, -9.019e-6
0.178, -8.967e-6
0.177, -8.924e-6
0.176, -8.882e-6
0.175, -8.840e-6
0.174, -8.792e-6
0.173, -8.748e-6
0.172, -8.707e-6
0.171, -8.667e-6
0.170, -8.621e-6
0.169, -8.585e-6
0.168, -8.542e-6
0.167, -8.494e-6
0.166, -8.453e-6
0.165, -8.416e-6
0.164, -8.378e-6
0.163, -8.342e-6
0.162, -8.294e-6
0.161, -8.260e-6
0.160, -8.220e-6
0.159, -8.184e-6
0.158, -8.146e-6
0.157, -8.107e-6
0.156, -8.071e-6
0.155, -8.030e-6
0.154, -7.987e-6
0.153, -7.955e-6
0.152, -7.918e-6
0.151, -7.881e-6
0.150, -7.842e-6
0.149, -7.803e-6
0.148, -7.771e-6
0.147, -7.736e-6
0.146, -7.695e-6
0.145, -7.667e-6
0.144, -7.634e-6
0.143, -7.600e-6
0.142, -7.559e-6
0.141, -7.512e-6
0.140, -7.493e-6
0.139, -7.455e-6
0.138, -7.421e-6
0.137, -7.393e-6
0.136, -7.362e-6
0.135, -7.326e-6
0.134, -7.296e-6
0.133, -7.260e-6
0.132, -7.233e-6
0.131, -7.199e-6
0.130, -7.167e-6
0.129, -7.141e-6
0.128, -7.116e-6
0.127, -7.076e-6
0.126, -7.044e-6
0.125, -7.010e-6
0.124, -6.986e-6
0.123, -6.953e-6
0.122, -6.921e-6
0.121, -6.894e-6
0.120, -6.865e-6
0.119, -6.830e-6
0.118, -6.808e-6
0.117, -6.770e-6
0.116, -6.744e-6
0.115, -6.717e-6
0.114, -6.688e-6
0.113, -6.663e-6
0.112, -6.637e-6
0.111, -6.605e-6
0.110, -6.579e-6
0.109, -6.551e-6
0.108, -6.527e-6
0.107, -6.497e-6
0.106, -6.467e-6
0.105, -6.446e-6
0.104, -6.418e-6
0.103, -6.400e-6
0.102, -6.366e-6
0.101, -6.341e-6
0.100, -6.318e-6
0.099, -6.294e-6
0.098, -6.264e-6
0.097, -6.240e-6
0.096, -6.217e-6
0.095, -6.192e-6
0.094, -6.170e-6
0.093, -6.142e-6
0.092, -6.122e-6
0.091, -6.096e-6
0.090, -6.060e-6
0.089, -6.045e-6
0.088, -6.022e-6
0.087, -5.999e-6
0.086, -5.974e-6
0.085, -5.952e-6
0.084, -5.932e-6
0.083, -5.909e-6
0.082, -5.883e-6
0.081, -5.869e-6
0.080, -5.846e-6
0.079, -5.820e-6
0.078, -5.804e-6
0.077, -5.785e-6
0.076, -5.760e-6
0.075, -5.738e-6
0.074, -5.715e-6
0.073, -5.694e-6
0.072, -5.681e-6
0.071, -5.649e-6
0.070, -5.631e-6
0.069, -5.610e-6
0.068, -5.592e-6
0.067, -5.568e-6
0.066, -5.547e-6
0.065, -5.529e-6
0.064, -5.503e-6
0.063, -5.487e-6
0.062, -5.469e-6
0.061, -5.448e-6
0.060, -5.434e-6
0.059, -5.411e-6
0.058, -5.390e-6
0.057, -5.374e-6
0.056, -5.359e-6
0.055, -5.336e-6
0.054, -5.322e-6
0.053, -5.298e-6
0.052, -5.281e-6
0.051, -5.265e-6
0.050, -5.241e-6
0.049, -5.228e-6
0.048, -5.213e-6
0.047, -5.195e-6
0.046, -5.177e-6
0.045, -5.157e-6
0.044, -5.147e-6
0.043, -5.122e-6
0.042, -5.105e-6
0.041, -5.089e-6
0.040, -5.075e-6
0.039, -5.048e-6
0.038, -5.035e-6
0.037, -5.017e-6
0.036, -5.009e-6
0.035, -4.990e-6
0.034, -4.970e-6
0.033, -4.959e-6
0.032, -4.939e-6
0.031, -4.926e-6
0.030, -4.913e-6
0.029, -4.895e-6
0.028, -4.878e-6
0.027, -4.865e-6
0.026, -4.859e-6
0.025, -4.834e-6
0.024, -4.823e-6
0.023, -4.809e-6
0.022, -4.784e-6
0.021, -4.774e-6
0.020, -4.762e-6
0.019, -4.748e-6
0.018, -4.733e-6
0.017, -4.724e-6
0.016, -4.709e-6
0.015, -4.698e-6
0.014, -4.681e-6
0.013, -4.656e-6
0.012, -4.650e-6
0.011, -4.636e-6
0.010, -4.621e-6
0.009, -4.611e-6
0.008, -4.600e-6
0.007, -4.583e-6
0.006, -4.571e-6
0.005, -4.560e-6
0.004, -4.548e-6
0.003, -4.531e-6
0.002, -4.518e-6
0.001, -4.512e-6
