May 7, 2026   17:15:37
Cyclic Voltammetry
File: mecn_co2_0.1mtbapf6_3mmfc_1mmfe-tpypy2me_2.8mphoh_-1.2_to_1v_10
Data Source:  Experiment
Instrument Model:  CHI660D
Header: 
Note: 

Init E (V) = 0
High E (V) = 1
Low E (V) = -1.2
Final E (V) = 0
Init P/N = N
Scan Rate (V/s) = 0.1
Segment = 3
Sample Interval (V) = 0.001
Quiet Time (sec) = 2
Sensitivity (A/V) = 1e-4
Comp R (ohm) = 166.8

Results:

Channel 1:
Segment 1:

Segment 2:
Ep = 0.575V
ip = 9.282e-5A
Ah = 1.096e-4C

Segment 3:
Ep = 0.444V
ip = -8.462e-5A
Ah = -5.367e-5C

Potential/V, Current/A

0.000, -3.913e-6
-0.001, -3.984e-6
-0.002, -4.009e-6
-0.003, -4.024e-6
-0.004, -4.037e-6
-0.005, -4.045e-6
-0.006, -4.046e-6
-0.007, -4.057e-6
-0.008, -4.060e-6
-0.009, -4.063e-6
-0.010, -4.068e-6
-0.011, -4.069e-6
-0.012, -4.070e-6
-0.013, -4.074e-6
-0.014, -4.073e-6
-0.015, -4.077e-6
-0.016, -4.078e-6
-0.017, -4.080e-6
-0.018, -4.079e-6
-0.019, -4.076e-6
-0.020, -4.083e-6
-0.021, -4.081e-6
-0.022, -4.081e-6
-0.023, -4.083e-6
-0.024, -4.084e-6
-0.025, -4.089e-6
-0.026, -4.083e-6
-0.027, -4.083e-6
-0.028, -4.088e-6
-0.029, -4.083e-6
-0.030, -4.084e-6
-0.031, -4.081e-6
-0.032, -4.085e-6
-0.033, -4.082e-6
-0.034, -4.082e-6
-0.035, -4.082e-6
-0.036, -4.082e-6
-0.037, -4.082e-6
-0.038, -4.075e-6
-0.039, -4.079e-6
-0.040, -4.079e-6
-0.041, -4.077e-6
-0.042, -4.078e-6
-0.043, -4.080e-6
-0.044, -4.079e-6
-0.045, -4.078e-6
-0.046, -4.074e-6
-0.047, -4.078e-6
-0.048, -4.078e-6
-0.049, -4.075e-6
-0.050, -4.073e-6
-0.051, -4.072e-6
-0.052, -4.075e-6
-0.053, -4.073e-6
-0.054, -4.070e-6
-0.055, -4.075e-6
-0.056, -4.072e-6
-0.057, -4.073e-6
-0.058, -4.072e-6
-0.059, -4.068e-6
-0.060, -4.068e-6
-0.061, -4.069e-6
-0.062, -4.068e-6
-0.063, -4.073e-6
-0.064, -4.061e-6
-0.065, -4.066e-6
-0.066, -4.064e-6
-0.067, -4.064e-6
-0.068, -4.071e-6
-0.069, -4.065e-6
-0.070, -4.061e-6
-0.071, -4.064e-6
-0.072, -4.064e-6
-0.073, -4.065e-6
-0.074, -4.056e-6
-0.075, -4.060e-6
-0.076, -4.068e-6
-0.077, -4.061e-6
-0.078, -4.061e-6
-0.079, -4.060e-6
-0.080, -4.062e-6
-0.081, -4.058e-6
-0.082, -4.057e-6
-0.083, -4.058e-6
-0.084, -4.057e-6
-0.085, -4.057e-6
-0.086, -4.053e-6
-0.087, -4.058e-6
-0.088, -4.059e-6
-0.089, -4.049e-6
-0.090, -4.051e-6
-0.091, -4.054e-6
-0.092, -4.055e-6
-0.093, -4.056e-6
-0.094, -4.049e-6
-0.095, -4.053e-6
-0.096, -4.051e-6
-0.097, -4.054e-6
-0.098, -4.054e-6
-0.099, -4.048e-6
-0.100, -4.053e-6
-0.101, -4.049e-6
-0.102, -4.055e-6
-0.103, -4.052e-6
-0.104, -4.049e-6
-0.105, -4.050e-6
-0.106, -4.048e-6
-0.107, -4.050e-6
-0.108, -4.051e-6
-0.109, -4.047e-6
-0.110, -4.046e-6
-0.111, -4.045e-6
-0.112, -4.050e-6
-0.113, -4.050e-6
-0.114, -4.043e-6
-0.115, -4.039e-6
-0.116, -4.046e-6
-0.117, -4.048e-6
-0.118, -4.045e-6
-0.119, -4.043e-6
-0.120, -4.044e-6
-0.121, -4.044e-6
-0.122, -4.046e-6
-0.123, -4.046e-6
-0.124, -4.042e-6
-0.125, -4.045e-6
-0.126, -4.042e-6
-0.127, -4.047e-6
-0.128, -4.053e-6
-0.129, -4.042e-6
-0.130, -4.044e-6
-0.131, -4.042e-6
-0.132, -4.047e-6
-0.133, -4.045e-6
-0.134, -4.041e-6
-0.135, -4.044e-6
-0.136, -4.044e-6
-0.137, -4.043e-6
-0.138, -4.044e-6
-0.139, -4.043e-6
-0.140, -4.038e-6
-0.141, -4.039e-6
-0.142, -4.041e-6
-0.143, -4.045e-6
-0.144, -4.038e-6
-0.145, -4.042e-6
-0.146, -4.042e-6
-0.147, -4.041e-6
-0.148, -4.045e-6
-0.149, -4.041e-6
-0.150, -4.041e-6
-0.151, -4.043e-6
-0.152, -4.044e-6
-0.153, -4.041e-6
-0.154, -4.036e-6
-0.155, -4.041e-6
-0.156, -4.043e-6
-0.157, -4.042e-6
-0.158, -4.042e-6
-0.159, -4.040e-6
-0.160, -4.044e-6
-0.161, -4.041e-6
-0.162, -4.043e-6
-0.163, -4.045e-6
-0.164, -4.040e-6
-0.165, -4.044e-6
-0.166, -4.036e-6
-0.167, -4.043e-6
-0.168, -4.044e-6
-0.169, -4.041e-6
-0.170, -4.047e-6
-0.171, -4.042e-6
-0.172, -4.047e-6
-0.173, -4.046e-6
-0.174, -4.041e-6
-0.175, -4.048e-6
-0.176, -4.047e-6
-0.177, -4.048e-6
-0.178, -4.045e-6
-0.179, -4.050e-6
-0.180, -4.050e-6
-0.181, -4.050e-6
-0.182, -4.046e-6
-0.183, -4.052e-6
-0.184, -4.049e-6
-0.185, -4.053e-6
-0.186, -4.049e-6
-0.187, -4.047e-6
-0.188, -4.053e-6
-0.189, -4.053e-6
-0.190, -4.055e-6
-0.191, -4.050e-6
-0.192, -4.048e-6
-0.193, -4.055e-6
-0.194, -4.053e-6
-0.195, -4.054e-6
-0.196, -4.059e-6
-0.197, -4.058e-6
-0.198, -4.058e-6
-0.199, -4.055e-6
-0.200, -4.061e-6
-0.201, -4.061e-6
-0.202, -4.062e-6
-0.203, -4.059e-6
-0.204, -4.054e-6
-0.205, -4.061e-6
-0.206, -4.063e-6
-0.207, -4.060e-6
-0.208, -4.067e-6
-0.209, -4.065e-6
-0.210, -4.070e-6
-0.211, -4.065e-6
-0.212, -4.072e-6
-0.213, -4.070e-6
-0.214, -4.070e-6
-0.215, -4.073e-6
-0.216, -4.076e-6
-0.217, -4.069e-6
-0.218, -4.075e-6
-0.219, -4.075e-6
-0.220, -4.079e-6
-0.221, -4.080e-6
-0.222, -4.078e-6
-0.223, -4.082e-6
-0.224, -4.082e-6
-0.225, -4.088e-6
-0.226, -4.088e-6
-0.227, -4.084e-6
-0.228, -4.089e-6
-0.229, -4.090e-6
-0.230, -4.098e-6
-0.231, -4.095e-6
-0.232, -4.092e-6
-0.233, -4.098e-6
-0.234, -4.095e-6
-0.235, -4.098e-6
-0.236, -4.101e-6
-0.237, -4.104e-6
-0.238, -4.104e-6
-0.239, -4.100e-6
-0.240, -4.108e-6
-0.241, -4.104e-6
-0.242, -4.110e-6
-0.243, -4.102e-6
-0.244, -4.109e-6
-0.245, -4.113e-6
-0.246, -4.111e-6
-0.247, -4.115e-6
-0.248, -4.117e-6
-0.249, -4.115e-6
-0.250, -4.121e-6
-0.251, -4.118e-6
-0.252, -4.124e-6
-0.253, -4.123e-6
-0.254, -4.120e-6
-0.255, -4.129e-6
-0.256, -4.125e-6
-0.257, -4.129e-6
-0.258, -4.130e-6
-0.259, -4.129e-6
-0.260, -4.134e-6
-0.261, -4.135e-6
-0.262, -4.132e-6
-0.263, -4.136e-6
-0.264, -4.135e-6
-0.265, -4.146e-6
-0.266, -4.141e-6
-0.267, -4.138e-6
-0.268, -4.141e-6
-0.269, -4.140e-6
-0.270, -4.148e-6
-0.271, -4.145e-6
-0.272, -4.149e-6
-0.273, -4.150e-6
-0.274, -4.145e-6
-0.275, -4.152e-6
-0.276, -4.154e-6
-0.277, -4.159e-6
-0.278, -4.152e-6
-0.279, -4.158e-6
-0.280, -4.163e-6
-0.281, -4.166e-6
-0.282, -4.164e-6
-0.283, -4.161e-6
-0.284, -4.166e-6
-0.285, -4.167e-6
-0.286, -4.163e-6
-0.287, -4.167e-6
-0.288, -4.172e-6
-0.289, -4.169e-6
-0.290, -4.174e-6
-0.291, -4.167e-6
-0.292, -4.175e-6
-0.293, -4.178e-6
-0.294, -4.166e-6
-0.295, -4.177e-6
-0.296, -4.178e-6
-0.297, -4.177e-6
-0.298, -4.179e-6
-0.299, -4.178e-6
-0.300, -4.184e-6
-0.301, -4.184e-6
-0.302, -4.184e-6
-0.303, -4.185e-6
-0.304, -4.187e-6
-0.305, -4.191e-6
-0.306, -4.187e-6
-0.307, -4.196e-6
-0.308, -4.195e-6
-0.309, -4.195e-6
-0.310, -4.194e-6
-0.311, -4.197e-6
-0.312, -4.195e-6
-0.313, -4.201e-6
-0.314, -4.197e-6
-0.315, -4.200e-6
-0.316, -4.202e-6
-0.317, -4.202e-6
-0.318, -4.204e-6
-0.319, -4.203e-6
-0.320, -4.201e-6
-0.321, -4.205e-6
-0.322, -4.206e-6
-0.323, -4.208e-6
-0.324, -4.213e-6
-0.325, -4.215e-6
-0.326, -4.209e-6
-0.327, -4.216e-6
-0.328, -4.215e-6
-0.329, -4.214e-6
-0.330, -4.217e-6
-0.331, -4.216e-6
-0.332, -4.227e-6
-0.333, -4.225e-6
-0.334, -4.222e-6
-0.335, -4.224e-6
-0.336, -4.226e-6
-0.337, -4.227e-6
-0.338, -4.229e-6
-0.339, -4.224e-6
-0.340, -4.236e-6
-0.341, -4.230e-6
-0.342, -4.229e-6
-0.343, -4.235e-6
-0.344, -4.231e-6
-0.345, -4.231e-6
-0.346, -4.235e-6
-0.347, -4.232e-6
-0.348, -4.243e-6
-0.349, -4.236e-6
-0.350, -4.242e-6
-0.351, -4.242e-6
-0.352, -4.247e-6
-0.353, -4.248e-6
-0.354, -4.244e-6
-0.355, -4.247e-6
-0.356, -4.251e-6
-0.357, -4.253e-6
-0.358, -4.248e-6
-0.359, -4.252e-6
-0.360, -4.257e-6
-0.361, -4.257e-6
-0.362, -4.260e-6
-0.363, -4.258e-6
-0.364, -4.262e-6
-0.365, -4.268e-6
-0.366, -4.262e-6
-0.367, -4.269e-6
-0.368, -4.269e-6
-0.369, -4.270e-6
-0.370, -4.273e-6
-0.371, -4.264e-6
-0.372, -4.277e-6
-0.373, -4.278e-6
-0.374, -4.276e-6
-0.375, -4.278e-6
-0.376, -4.290e-6
-0.377, -4.280e-6
-0.378, -4.286e-6
-0.379, -4.283e-6
-0.380, -4.300e-6
-0.381, -4.291e-6
-0.382, -4.295e-6
-0.383, -4.295e-6
-0.384, -4.308e-6
-0.385, -4.305e-6
-0.386, -4.303e-6
-0.387, -4.307e-6
-0.388, -4.309e-6
-0.389, -4.308e-6
-0.390, -4.313e-6
-0.391, -4.324e-6
-0.392, -4.322e-6
-0.393, -4.323e-6
-0.394, -4.319e-6
-0.395, -4.326e-6
-0.396, -4.326e-6
-0.397, -4.330e-6
-0.398, -4.331e-6
-0.399, -4.331e-6
-0.400, -4.341e-6
-0.401, -4.337e-6
-0.402, -4.345e-6
-0.403, -4.344e-6
-0.404, -4.346e-6
-0.405, -4.353e-6
-0.406, -4.352e-6
-0.407, -4.359e-6
-0.408, -4.360e-6
-0.409, -4.332e-6
-0.410, -4.359e-6
-0.411, -4.363e-6
-0.412, -4.367e-6
-0.413, -4.376e-6
-0.414, -4.367e-6
-0.415, -4.381e-6
-0.416, -4.381e-6
-0.417, -4.386e-6
-0.418, -4.385e-6
-0.419, -4.387e-6
-0.420, -4.395e-6
-0.421, -4.399e-6
-0.422, -4.395e-6
-0.423, -4.402e-6
-0.424, -4.403e-6
-0.425, -4.411e-6
-0.426, -4.411e-6
-0.427, -4.417e-6
-0.428, -4.422e-6
-0.429, -4.421e-6
-0.430, -4.427e-6
-0.431, -4.437e-6
-0.432, -4.436e-6
-0.433, -4.438e-6
-0.434, -4.439e-6
-0.435, -4.457e-6
-0.436, -4.454e-6
-0.437, -4.458e-6
-0.438, -4.458e-6
-0.439, -4.461e-6
-0.440, -4.470e-6
-0.441, -4.469e-6
-0.442, -4.474e-6
-0.443, -4.475e-6
-0.444, -4.478e-6
-0.445, -4.487e-6
-0.446, -4.488e-6
-0.447, -4.492e-6
-0.448, -4.487e-6
-0.449, -4.492e-6
-0.450, -4.502e-6
-0.451, -4.504e-6
-0.452, -4.513e-6
-0.453, -4.513e-6
-0.454, -4.513e-6
-0.455, -4.521e-6
-0.456, -4.527e-6
-0.457, -4.527e-6
-0.458, -4.528e-6
-0.459, -4.529e-6
-0.460, -4.543e-6
-0.461, -4.542e-6
-0.462, -4.544e-6
-0.463, -4.552e-6
-0.464, -4.552e-6
-0.465, -4.559e-6
-0.466, -4.557e-6
-0.467, -4.561e-6
-0.468, -4.571e-6
-0.469, -4.565e-6
-0.470, -4.574e-6
-0.471, -4.580e-6
-0.472, -4.583e-6
-0.473, -4.576e-6
-0.474, -4.582e-6
-0.475, -4.588e-6
-0.476, -4.595e-6
-0.477, -4.598e-6
-0.478, -4.596e-6
-0.479, -4.600e-6
-0.480, -4.610e-6
-0.481, -4.608e-6
-0.482, -4.611e-6
-0.483, -4.610e-6
-0.484, -4.615e-6
-0.485, -4.625e-6
-0.486, -4.631e-6
-0.487, -4.628e-6
-0.488, -4.629e-6
-0.489, -4.630e-6
-0.490, -4.638e-6
-0.491, -4.635e-6
-0.492, -4.643e-6
-0.493, -4.642e-6
-0.494, -4.637e-6
-0.495, -4.648e-6
-0.496, -4.653e-6
-0.497, -4.655e-6
-0.498, -4.654e-6
-0.499, -4.644e-6
-0.500, -4.664e-6
-0.501, -4.665e-6
-0.502, -4.662e-6
-0.503, -4.669e-6
-0.504, -4.670e-6
-0.505, -4.676e-6
-0.506, -4.675e-6
-0.507, -4.675e-6
-0.508, -4.683e-6
-0.509, -4.682e-6
-0.510, -4.687e-6
-0.511, -4.690e-6
-0.512, -4.703e-6
-0.513, -4.695e-6
-0.514, -4.692e-6
-0.515, -4.699e-6
-0.516, -4.702e-6
-0.517, -4.705e-6
-0.518, -4.703e-6
-0.519, -4.706e-6
-0.520, -4.710e-6
-0.521, -4.713e-6
-0.522, -4.716e-6
-0.523, -4.715e-6
-0.524, -4.714e-6
-0.525, -4.719e-6
-0.526, -4.719e-6
-0.527, -4.723e-6
-0.528, -4.723e-6
-0.529, -4.727e-6
-0.530, -4.732e-6
-0.531, -4.727e-6
-0.532, -4.733e-6
-0.533, -4.735e-6
-0.534, -4.737e-6
-0.535, -4.742e-6
-0.536, -4.742e-6
-0.537, -4.752e-6
-0.538, -4.747e-6
-0.539, -4.745e-6
-0.540, -4.757e-6
-0.541, -4.755e-6
-0.542, -4.753e-6
-0.543, -4.755e-6
-0.544, -4.756e-6
-0.545, -4.764e-6
-0.546, -4.763e-6
-0.547, -4.765e-6
-0.548, -4.769e-6
-0.549, -4.768e-6
-0.550, -4.764e-6
-0.551, -4.774e-6
-0.552, -4.775e-6
-0.553, -4.779e-6
-0.554, -4.776e-6
-0.555, -4.784e-6
-0.556, -4.784e-6
-0.557, -4.791e-6
-0.558, -4.786e-6
-0.559, -4.793e-6
-0.560, -4.802e-6
-0.561, -4.795e-6
-0.562, -4.799e-6
-0.563, -4.795e-6
-0.564, -4.808e-6
-0.565, -4.811e-6
-0.566, -4.808e-6
-0.567, -4.813e-6
-0.568, -4.817e-6
-0.569, -4.814e-6
-0.570, -4.823e-6
-0.571, -4.821e-6
-0.572, -4.827e-6
-0.573, -4.827e-6
-0.574, -4.826e-6
-0.575, -4.834e-6
-0.576, -4.827e-6
-0.577, -4.837e-6
-0.578, -4.837e-6
-0.579, -4.839e-6
-0.580, -4.847e-6
-0.581, -4.849e-6
-0.582, -4.848e-6
-0.583, -4.851e-6
-0.584, -4.855e-6
-0.585, -4.862e-6
-0.586, -4.858e-6
-0.587, -4.860e-6
-0.588, -4.872e-6
-0.589, -4.874e-6
-0.590, -4.872e-6
-0.591, -4.874e-6
-0.592, -4.880e-6
-0.593, -4.883e-6
-0.594, -4.880e-6
-0.595, -4.886e-6
-0.596, -4.891e-6
-0.597, -4.894e-6
-0.598, -4.894e-6
-0.599, -4.894e-6
-0.600, -4.905e-6
-0.601, -4.898e-6
-0.602, -4.907e-6
-0.603, -4.906e-6
-0.604, -4.915e-6
-0.605, -4.915e-6
-0.606, -4.917e-6
-0.607, -4.925e-6
-0.608, -4.924e-6
-0.609, -4.926e-6
-0.610, -4.935e-6
-0.611, -4.932e-6
-0.612, -4.940e-6
-0.613, -4.946e-6
-0.614, -4.921e-6
-0.615, -4.944e-6
-0.616, -4.949e-6
-0.617, -4.958e-6
-0.618, -4.957e-6
-0.619, -4.955e-6
-0.620, -4.967e-6
-0.621, -4.965e-6
-0.622, -4.971e-6
-0.623, -4.972e-6
-0.624, -4.976e-6
-0.625, -4.983e-6
-0.626, -4.982e-6
-0.627, -4.979e-6
-0.628, -4.991e-6
-0.629, -4.993e-6
-0.630, -4.997e-6
-0.631, -4.998e-6
-0.632, -5.005e-6
-0.633, -5.006e-6
-0.634, -5.012e-6
-0.635, -5.014e-6
-0.636, -5.021e-6
-0.637, -5.025e-6
-0.638, -5.027e-6
-0.639, -5.027e-6
-0.640, -5.049e-6
-0.641, -5.037e-6
-0.642, -5.044e-6
-0.643, -5.044e-6
-0.644, -5.052e-6
-0.645, -5.058e-6
-0.646, -5.054e-6
-0.647, -5.063e-6
-0.648, -5.066e-6
-0.649, -5.066e-6
-0.650, -5.070e-6
-0.651, -5.076e-6
-0.652, -5.079e-6
-0.653, -5.080e-6
-0.654, -5.082e-6
-0.655, -5.097e-6
-0.656, -5.096e-6
-0.657, -5.099e-6
-0.658, -5.103e-6
-0.659, -5.104e-6
-0.660, -5.118e-6
-0.661, -5.118e-6
-0.662, -5.117e-6
-0.663, -5.122e-6
-0.664, -5.129e-6
-0.665, -5.132e-6
-0.666, -5.136e-6
-0.667, -5.143e-6
-0.668, -5.146e-6
-0.669, -5.146e-6
-0.670, -5.155e-6
-0.671, -5.159e-6
-0.672, -5.163e-6
-0.673, -5.165e-6
-0.674, -5.168e-6
-0.675, -5.172e-6
-0.676, -5.183e-6
-0.677, -5.184e-6
-0.678, -5.173e-6
-0.679, -5.189e-6
-0.680, -5.199e-6
-0.681, -5.198e-6
-0.682, -5.203e-6
-0.683, -5.204e-6
-0.684, -5.207e-6
-0.685, -5.216e-6
-0.686, -5.215e-6
-0.687, -5.227e-6
-0.688, -5.224e-6
-0.689, -5.228e-6
-0.690, -5.233e-6
-0.691, -5.246e-6
-0.692, -5.244e-6
-0.693, -5.247e-6
-0.694, -5.243e-6
-0.695, -5.257e-6
-0.696, -5.257e-6
-0.697, -5.258e-6
-0.698, -5.262e-6
-0.699, -5.263e-6
-0.700, -5.277e-6
-0.701, -5.276e-6
-0.702, -5.278e-6
-0.703, -5.283e-6
-0.704, -5.279e-6
-0.705, -5.291e-6
-0.706, -5.299e-6
-0.707, -5.300e-6
-0.708, -5.303e-6
-0.709, -5.312e-6
-0.710, -5.316e-6
-0.711, -5.320e-6
-0.712, -5.327e-6
-0.713, -5.327e-6
-0.714, -5.330e-6
-0.715, -5.338e-6
-0.716, -5.350e-6
-0.717, -5.357e-6
-0.718, -5.348e-6
-0.719, -5.356e-6
-0.720, -5.367e-6
-0.721, -5.368e-6
-0.722, -5.374e-6
-0.723, -5.373e-6
-0.724, -5.387e-6
-0.725, -5.394e-6
-0.726, -5.393e-6
-0.727, -5.407e-6
-0.728, -5.408e-6
-0.729, -5.407e-6
-0.730, -5.421e-6
-0.731, -5.420e-6
-0.732, -5.437e-6
-0.733, -5.438e-6
-0.734, -5.445e-6
-0.735, -5.459e-6
-0.736, -5.462e-6
-0.737, -5.472e-6
-0.738, -5.472e-6
-0.739, -5.480e-6
-0.740, -5.498e-6
-0.741, -5.501e-6
-0.742, -5.521e-6
-0.743, -5.516e-6
-0.744, -5.528e-6
-0.745, -5.541e-6
-0.746, -5.547e-6
-0.747, -5.555e-6
-0.748, -5.565e-6
-0.749, -5.575e-6
-0.750, -5.588e-6
-0.751, -5.597e-6
-0.752, -5.614e-6
-0.753, -5.617e-6
-0.754, -5.632e-6
-0.755, -5.635e-6
-0.756, -5.658e-6
-0.757, -5.673e-6
-0.758, -5.676e-6
-0.759, -5.694e-6
-0.760, -5.718e-6
-0.761, -5.726e-6
-0.762, -5.742e-6
-0.763, -5.750e-6
-0.764, -5.773e-6
-0.765, -5.795e-6
-0.766, -5.808e-6
-0.767, -5.825e-6
-0.768, -5.841e-6
-0.769, -5.861e-6
-0.770, -5.882e-6
-0.771, -5.898e-6
-0.772, -5.924e-6
-0.773, -5.943e-6
-0.774, -5.961e-6
-0.775, -5.993e-6
-0.776, -6.013e-6
-0.777, -6.041e-6
-0.778, -6.069e-6
-0.779, -6.092e-6
-0.780, -6.132e-6
-0.781, -6.151e-6
-0.782, -6.183e-6
-0.783, -6.216e-6
-0.784, -6.255e-6
-0.785, -6.297e-6
-0.786, -6.323e-6
-0.787, -6.361e-6
-0.788, -6.409e-6
-0.789, -6.448e-6
-0.790, -6.492e-6
-0.791, -6.536e-6
-0.792, -6.588e-6
-0.793, -6.637e-6
-0.794, -6.688e-6
-0.795, -6.738e-6
-0.796, -6.791e-6
-0.797, -6.849e-6
-0.798, -6.904e-6
-0.799, -6.970e-6
-0.800, -7.038e-6
-0.801, -7.107e-6
-0.802, -7.166e-6
-0.803, -7.234e-6
-0.804, -7.314e-6
-0.805, -7.393e-6
-0.806, -7.460e-6
-0.807, -7.548e-6
-0.808, -7.633e-6
-0.809, -7.722e-6
-0.810, -7.822e-6
-0.811, -7.913e-6
-0.812, -8.023e-6
-0.813, -8.128e-6
-0.814, -8.234e-6
-0.815, -8.361e-6
-0.816, -8.461e-6
-0.817, -8.592e-6
-0.818, -8.720e-6
-0.819, -8.798e-6
-0.820, -8.972e-6
-0.821, -9.116e-6
-0.822, -9.264e-6
-0.823, -9.425e-6
-0.824, -9.590e-6
-0.825, -9.755e-6
-0.826, -9.914e-6
-0.827, -1.011e-5
-0.828, -1.030e-5
-0.829, -1.050e-5
-0.830, -1.069e-5
-0.831, -1.091e-5
-0.832, -1.109e-5
-0.833, -1.133e-5
-0.834, -1.157e-5
-0.835, -1.182e-5
-0.836, -1.207e-5
-0.837, -1.234e-5
-0.838, -1.259e-5
-0.839, -1.289e-5
-0.840, -1.319e-5
-0.841, -1.346e-5
-0.842, -1.378e-5
-0.843, -1.409e-5
-0.844, -1.444e-5
-0.845, -1.484e-5
-0.846, -1.514e-5
-0.847, -1.551e-5
-0.848, -1.587e-5
-0.849, -1.627e-5
-0.850, -1.667e-5
-0.851, -1.704e-5
-0.852, -1.748e-5
-0.853, -1.788e-5
-0.854, -1.831e-5
-0.855, -1.876e-5
-0.856, -1.918e-5
-0.857, -1.964e-5
-0.858, -2.007e-5
-0.859, -2.056e-5
-0.860, -2.106e-5
-0.861, -2.153e-5
-0.862, -2.203e-5
-0.863, -2.253e-5
-0.864, -2.304e-5
-0.865, -2.357e-5
-0.866, -2.406e-5
-0.867, -2.459e-5
-0.868, -2.511e-5
-0.869, -2.561e-5
-0.870, -2.613e-5
-0.871, -2.664e-5
-0.872, -2.718e-5
-0.873, -2.770e-5
-0.874, -2.821e-5
-0.875, -2.874e-5
-0.876, -2.922e-5
-0.877, -2.974e-5
-0.878, -3.025e-5
-0.879, -3.074e-5
-0.880, -3.121e-5
-0.881, -3.170e-5
-0.882, -3.219e-5
-0.883, -3.259e-5
-0.884, -3.309e-5
-0.885, -3.354e-5
-0.886, -3.398e-5
-0.887, -3.444e-5
-0.888, -3.485e-5
-0.889, -3.526e-5
-0.890, -3.569e-5
-0.891, -3.606e-5
-0.892, -3.648e-5
-0.893, -3.686e-5
-0.894, -3.723e-5
-0.895, -3.761e-5
-0.896, -3.804e-5
-0.897, -3.839e-5
-0.898, -3.871e-5
-0.899, -3.906e-5
-0.900, -3.943e-5
-0.901, -3.977e-5
-0.902, -4.011e-5
-0.903, -4.043e-5
-0.904, -4.076e-5
-0.905, -4.110e-5
-0.906, -4.142e-5
-0.907, -4.176e-5
-0.908, -4.208e-5
-0.909, -4.240e-5
-0.910, -4.276e-5
-0.911, -4.309e-5
-0.912, -4.343e-5
-0.913, -4.376e-5
-0.914, -4.412e-5
-0.915, -4.447e-5
-0.916, -4.481e-5
-0.917, -4.520e-5
-0.918, -4.556e-5
-0.919, -4.594e-5
-0.920, -4.635e-5
-0.921, -4.676e-5
-0.922, -4.717e-5
-0.923, -4.756e-5
-0.924, -4.799e-5
-0.925, -4.843e-5
-0.926, -4.883e-5
-0.927, -4.928e-5
-0.928, -4.974e-5
-0.929, -5.021e-5
-0.930, -5.070e-5
-0.931, -5.117e-5
-0.932, -5.168e-5
-0.933, -5.219e-5
-0.934, -5.268e-5
-0.935, -5.324e-5
-0.936, -5.377e-5
-0.937, -5.435e-5
-0.938, -5.493e-5
-0.939, -5.552e-5
-0.940, -5.613e-5
-0.941, -5.673e-5
-0.942, -5.736e-5
-0.943, -5.801e-5
-0.944, -5.866e-5
-0.945, -5.935e-5
-0.946, -6.000e-5
-0.947, -6.075e-5
-0.948, -6.148e-5
-0.949, -6.220e-5
-0.950, -6.295e-5
-0.951, -6.368e-5
-0.952, -6.448e-5
-0.953, -6.525e-5
-0.954, -6.605e-5
-0.955, -6.686e-5
-0.956, -6.766e-5
-0.957, -6.852e-5
-0.958, -6.938e-5
-0.959, -7.025e-5
-0.960, -7.108e-5
-0.961, -7.198e-5
-0.962, -7.288e-5
-0.963, -7.380e-5
-0.964, -7.472e-5
-0.965, -7.567e-5
-0.966, -7.660e-5
-0.967, -7.756e-5
-0.968, -7.852e-5
-0.969, -7.951e-5
-0.970, -8.049e-5
-0.971, -8.145e-5
-0.972, -8.246e-5
-0.973, -8.344e-5
-0.974, -8.445e-5
-0.975, -8.546e-5
-0.976, -8.646e-5
-0.977, -8.751e-5
-0.978, -8.851e-5
-0.979, -8.952e-5
-0.980, -9.055e-5
-0.981, -9.157e-5
-0.982, -9.259e-5
-0.983, -9.361e-5
-0.984, -9.464e-5
-0.985, -9.564e-5
-0.986, -9.660e-5
-0.987, -9.763e-5
-0.988, -9.862e-5
-0.989, -9.960e-5
-0.990, -1.006e-4
-0.991, -1.016e-4
-0.992, -1.026e-4
-0.993, -1.035e-4
-0.994, -1.045e-4
-0.995, -1.054e-4
-0.996, -1.064e-4
-0.997, -1.073e-4
-0.998, -1.082e-4
-0.999, -1.091e-4
-1.000, -1.100e-4
-1.001, -1.109e-4
-1.002, -1.118e-4
-1.003, -1.126e-4
-1.004, -1.135e-4
-1.005, -1.143e-4
-1.006, -1.151e-4
-1.007, -1.159e-4
-1.008, -1.167e-4
-1.009, -1.175e-4
-1.010, -1.182e-4
-1.011, -1.189e-4
-1.012, -1.197e-4
-1.013, -1.204e-4
-1.014, -1.211e-4
-1.015, -1.218e-4
-1.016, -1.225e-4
-1.017, -1.231e-4
-1.018, -1.238e-4
-1.019, -1.244e-4
-1.020, -1.251e-4
-1.021, -1.257e-4
-1.022, -1.263e-4
-1.023, -1.269e-4
-1.024, -1.274e-4
-1.025, -1.280e-4
-1.026, -1.285e-4
-1.027, -1.290e-4
-1.028, -1.296e-4
-1.029, -1.301e-4
-1.030, -1.306e-4
-1.031, -1.310e-4
-1.032, -1.315e-4
-1.033, -1.320e-4
-1.034, -1.324e-4
-1.035, -1.329e-4
-1.036, -1.333e-4
-1.037, -1.338e-4
-1.038, -1.342e-4
-1.039, -1.346e-4
-1.040, -1.350e-4
-1.041, -1.353e-4
-1.042, -1.357e-4
-1.043, -1.361e-4
-1.044, -1.365e-4
-1.045, -1.368e-4
-1.046, -1.372e-4
-1.047, -1.375e-4
-1.048, -1.378e-4
-1.049, -1.382e-4
-1.050, -1.385e-4
-1.051, -1.388e-4
-1.052, -1.391e-4
-1.053, -1.394e-4
-1.054, -1.397e-4
-1.055, -1.400e-4
-1.056, -1.403e-4
-1.057, -1.405e-4
-1.058, -1.408e-4
-1.059, -1.411e-4
-1.060, -1.413e-4
-1.061, -1.416e-4
-1.062, -1.418e-4
-1.063, -1.421e-4
-1.064, -1.423e-4
-1.065, -1.425e-4
-1.066, -1.428e-4
-1.067, -1.430e-4
-1.068, -1.432e-4
-1.069, -1.434e-4
-1.070, -1.437e-4
-1.071, -1.439e-4
-1.072, -1.441e-4
-1.073, -1.443e-4
-1.074, -1.445e-4
-1.075, -1.447e-4
-1.076, -1.449e-4
-1.077, -1.451e-4
-1.078, -1.453e-4
-1.079, -1.455e-4
-1.080, -1.457e-4
-1.081, -1.459e-4
-1.082, -1.461e-4
-1.083, -1.462e-4
-1.084, -1.464e-4
-1.085, -1.466e-4
-1.086, -1.468e-4
-1.087, -1.469e-4
-1.088, -1.471e-4
-1.089, -1.473e-4
-1.090, -1.475e-4
-1.091, -1.476e-4
-1.092, -1.478e-4
-1.093, -1.480e-4
-1.094, -1.481e-4
-1.095, -1.483e-4
-1.096, -1.485e-4
-1.097, -1.486e-4
-1.098, -1.488e-4
-1.099, -1.489e-4
-1.100, -1.491e-4
-1.101, -1.493e-4
-1.102, -1.494e-4
-1.103, -1.496e-4
-1.104, -1.497e-4
-1.105, -1.499e-4
-1.106, -1.500e-4
-1.107, -1.502e-4
-1.108, -1.503e-4
-1.109, -1.505e-4
-1.110, -1.506e-4
-1.111, -1.508e-4
-1.112, -1.509e-4
-1.113, -1.511e-4
-1.114, -1.512e-4
-1.115, -1.514e-4
-1.116, -1.515e-4
-1.117, -1.517e-4
-1.118, -1.518e-4
-1.119, -1.520e-4
-1.120, -1.521e-4
-1.121, -1.522e-4
-1.122, -1.524e-4
-1.123, -1.525e-4
-1.124, -1.527e-4
-1.125, -1.528e-4
-1.126, -1.530e-4
-1.127, -1.531e-4
-1.128, -1.532e-4
-1.129, -1.534e-4
-1.130, -1.535e-4
-1.131, -1.537e-4
-1.132, -1.538e-4
-1.133, -1.539e-4
-1.134, -1.541e-4
-1.135, -1.542e-4
-1.136, -1.544e-4
-1.137, -1.545e-4
-1.138, -1.546e-4
-1.139, -1.548e-4
-1.140, -1.549e-4
-1.141, -1.551e-4
-1.142, -1.552e-4
-1.143, -1.553e-4
-1.144, -1.555e-4
-1.145, -1.556e-4
-1.146, -1.558e-4
-1.147, -1.559e-4
-1.148, -1.561e-4
-1.149, -1.562e-4
-1.150, -1.563e-4
-1.151, -1.565e-4
-1.152, -1.566e-4
-1.153, -1.568e-4
-1.154, -1.569e-4
-1.155, -1.571e-4
-1.156, -1.572e-4
-1.157, -1.573e-4
-1.158, -1.575e-4
-1.159, -1.576e-4
-1.160, -1.578e-4
-1.161, -1.579e-4
-1.162, -1.581e-4
-1.163, -1.582e-4
-1.164, -1.584e-4
-1.165, -1.585e-4
-1.166, -1.587e-4
-1.167, -1.588e-4
-1.168, -1.590e-4
-1.169, -1.592e-4
-1.170, -1.593e-4
-1.171, -1.595e-4
-1.172, -1.596e-4
-1.173, -1.598e-4
-1.174, -1.599e-4
-1.175, -1.601e-4
-1.176, -1.603e-4
-1.177, -1.604e-4
-1.178, -1.606e-4
-1.179, -1.608e-4
-1.180, -1.609e-4
-1.181, -1.611e-4
-1.182, -1.613e-4
-1.183, -1.615e-4
-1.184, -1.617e-4
-1.185, -1.618e-4
-1.186, -1.620e-4
-1.187, -1.622e-4
-1.188, -1.624e-4
-1.189, -1.626e-4
-1.190, -1.628e-4
-1.191, -1.630e-4
-1.192, -1.632e-4
-1.193, -1.634e-4
-1.194, -1.636e-4
-1.195, -1.638e-4
-1.196, -1.640e-4
-1.197, -1.642e-4
-1.198, -1.644e-4
-1.199, -1.646e-4
-1.200, -1.643e-4
-1.199, -1.637e-4
-1.198, -1.633e-4
-1.197, -1.629e-4
-1.196, -1.626e-4
-1.195, -1.623e-4
-1.194, -1.620e-4
-1.193, -1.617e-4
-1.192, -1.614e-4
-1.191, -1.612e-4
-1.190, -1.609e-4
-1.189, -1.607e-4
-1.188, -1.605e-4
-1.187, -1.603e-4
-1.186, -1.601e-4
-1.185, -1.599e-4
-1.184, -1.598e-4
-1.183, -1.596e-4
-1.182, -1.594e-4
-1.181, -1.593e-4
-1.180, -1.592e-4
-1.179, -1.590e-4
-1.178, -1.589e-4
-1.177, -1.588e-4
-1.176, -1.586e-4
-1.175, -1.585e-4
-1.174, -1.584e-4
-1.173, -1.583e-4
-1.172, -1.582e-4
-1.171, -1.581e-4
-1.170, -1.580e-4
-1.169, -1.579e-4
-1.168, -1.578e-4
-1.167, -1.578e-4
-1.166, -1.577e-4
-1.165, -1.576e-4
-1.164, -1.575e-4
-1.163, -1.575e-4
-1.162, -1.574e-4
-1.161, -1.574e-4
-1.160, -1.573e-4
-1.159, -1.572e-4
-1.158, -1.572e-4
-1.157, -1.571e-4
-1.156, -1.571e-4
-1.155, -1.570e-4
-1.154, -1.570e-4
-1.153, -1.569e-4
-1.152, -1.569e-4
-1.151, -1.568e-4
-1.150, -1.568e-4
-1.149, -1.568e-4
-1.148, -1.567e-4
-1.147, -1.567e-4
-1.146, -1.566e-4
-1.145, -1.566e-4
-1.144, -1.566e-4
-1.143, -1.565e-4
-1.142, -1.565e-4
-1.141, -1.565e-4
-1.140, -1.565e-4
-1.139, -1.564e-4
-1.138, -1.564e-4
-1.137, -1.564e-4
-1.136, -1.563e-4
-1.135, -1.563e-4
-1.134, -1.563e-4
-1.133, -1.563e-4
-1.132, -1.562e-4
-1.131, -1.562e-4
-1.130, -1.562e-4
-1.129, -1.561e-4
-1.128, -1.561e-4
-1.127, -1.561e-4
-1.126, -1.561e-4
-1.125, -1.561e-4
-1.124, -1.560e-4
-1.123, -1.560e-4
-1.122, -1.560e-4
-1.121, -1.560e-4
-1.120, -1.559e-4
-1.119, -1.559e-4
-1.118, -1.559e-4
-1.117, -1.559e-4
-1.116, -1.558e-4
-1.115, -1.558e-4
-1.114, -1.558e-4
-1.113, -1.557e-4
-1.112, -1.557e-4
-1.111, -1.557e-4
-1.110, -1.556e-4
-1.109, -1.556e-4
-1.108, -1.556e-4
-1.107, -1.556e-4
-1.106, -1.555e-4
-1.105, -1.555e-4
-1.104, -1.554e-4
-1.103, -1.554e-4
-1.102, -1.554e-4
-1.101, -1.553e-4
-1.100, -1.553e-4
-1.099, -1.552e-4
-1.098, -1.552e-4
-1.097, -1.552e-4
-1.096, -1.551e-4
-1.095, -1.551e-4
-1.094, -1.550e-4
-1.093, -1.550e-4
-1.092, -1.549e-4
-1.091, -1.548e-4
-1.090, -1.548e-4
-1.089, -1.547e-4
-1.088, -1.547e-4
-1.087, -1.546e-4
-1.086, -1.545e-4
-1.085, -1.545e-4
-1.084, -1.544e-4
-1.083, -1.543e-4
-1.082, -1.542e-4
-1.081, -1.541e-4
-1.080, -1.541e-4
-1.079, -1.540e-4
-1.078, -1.539e-4
-1.077, -1.538e-4
-1.076, -1.537e-4
-1.075, -1.536e-4
-1.074, -1.535e-4
-1.073, -1.534e-4
-1.072, -1.533e-4
-1.071, -1.531e-4
-1.070, -1.530e-4
-1.069, -1.529e-4
-1.068, -1.528e-4
-1.067, -1.526e-4
-1.066, -1.525e-4
-1.065, -1.523e-4
-1.064, -1.522e-4
-1.063, -1.520e-4
-1.062, -1.519e-4
-1.061, -1.517e-4
-1.060, -1.515e-4
-1.059, -1.513e-4
-1.058, -1.512e-4
-1.057, -1.509e-4
-1.056, -1.508e-4
-1.055, -1.505e-4
-1.054, -1.503e-4
-1.053, -1.501e-4
-1.052, -1.499e-4
-1.051, -1.496e-4
-1.050, -1.494e-4
-1.049, -1.491e-4
-1.048, -1.489e-4
-1.047, -1.486e-4
-1.046, -1.483e-4
-1.045, -1.480e-4
-1.044, -1.477e-4
-1.043, -1.474e-4
-1.042, -1.471e-4
-1.041, -1.467e-4
-1.040, -1.464e-4
-1.039, -1.460e-4
-1.038, -1.457e-4
-1.037, -1.453e-4
-1.036, -1.449e-4
-1.035, -1.445e-4
-1.034, -1.441e-4
-1.033, -1.437e-4
-1.032, -1.433e-4
-1.031, -1.428e-4
-1.030, -1.423e-4
-1.029, -1.419e-4
-1.028, -1.414e-4
-1.027, -1.409e-4
-1.026, -1.404e-4
-1.025, -1.398e-4
-1.024, -1.393e-4
-1.023, -1.388e-4
-1.022, -1.382e-4
-1.021, -1.376e-4
-1.020, -1.370e-4
-1.019, -1.363e-4
-1.018, -1.357e-4
-1.017, -1.351e-4
-1.016, -1.344e-4
-1.015, -1.337e-4
-1.014, -1.330e-4
-1.013, -1.323e-4
-1.012, -1.316e-4
-1.011, -1.309e-4
-1.010, -1.301e-4
-1.009, -1.293e-4
-1.008, -1.286e-4
-1.007, -1.277e-4
-1.006, -1.269e-4
-1.005, -1.261e-4
-1.004, -1.252e-4
-1.003, -1.244e-4
-1.002, -1.235e-4
-1.001, -1.226e-4
-1.000, -1.217e-4
-0.999, -1.207e-4
-0.998, -1.198e-4
-0.997, -1.188e-4
-0.996, -1.179e-4
-0.995, -1.169e-4
-0.994, -1.159e-4
-0.993, -1.149e-4
-0.992, -1.139e-4
-0.991, -1.129e-4
-0.990, -1.118e-4
-0.989, -1.108e-4
-0.988, -1.098e-4
-0.987, -1.087e-4
-0.986, -1.076e-4
-0.985, -1.066e-4
-0.984, -1.055e-4
-0.983, -1.044e-4
-0.982, -1.033e-4
-0.981, -1.022e-4
-0.980, -1.011e-4
-0.979, -9.995e-5
-0.978, -9.884e-5
-0.977, -9.772e-5
-0.976, -9.665e-5
-0.975, -9.549e-5
-0.974, -9.439e-5
-0.973, -9.330e-5
-0.972, -9.216e-5
-0.971, -9.105e-5
-0.970, -8.992e-5
-0.969, -8.881e-5
-0.968, -8.771e-5
-0.967, -8.658e-5
-0.966, -8.549e-5
-0.965, -8.438e-5
-0.964, -8.327e-5
-0.963, -8.221e-5
-0.962, -8.111e-5
-0.961, -8.003e-5
-0.960, -7.900e-5
-0.959, -7.790e-5
-0.958, -7.686e-5
-0.957, -7.579e-5
-0.956, -7.474e-5
-0.955, -7.368e-5
-0.954, -7.264e-5
-0.953, -7.162e-5
-0.952, -7.059e-5
-0.951, -6.954e-5
-0.950, -6.852e-5
-0.949, -6.752e-5
-0.948, -6.652e-5
-0.947, -6.546e-5
-0.946, -6.451e-5
-0.945, -6.353e-5
-0.944, -6.257e-5
-0.943, -6.161e-5
-0.942, -6.064e-5
-0.941, -5.971e-5
-0.940, -5.873e-5
-0.939, -5.780e-5
-0.938, -5.686e-5
-0.937, -5.593e-5
-0.936, -5.504e-5
-0.935, -5.407e-5
-0.934, -5.320e-5
-0.933, -5.230e-5
-0.932, -5.136e-5
-0.931, -5.046e-5
-0.930, -4.957e-5
-0.929, -4.867e-5
-0.928, -4.780e-5
-0.927, -4.689e-5
-0.926, -4.603e-5
-0.925, -4.513e-5
-0.924, -4.424e-5
-0.923, -4.338e-5
-0.922, -4.247e-5
-0.921, -4.160e-5
-0.920, -4.074e-5
-0.919, -3.988e-5
-0.918, -3.901e-5
-0.917, -3.815e-5
-0.916, -3.731e-5
-0.915, -3.644e-5
-0.914, -3.560e-5
-0.913, -3.476e-5
-0.912, -3.393e-5
-0.911, -3.306e-5
-0.910, -3.220e-5
-0.909, -3.142e-5
-0.908, -3.059e-5
-0.907, -2.973e-5
-0.906, -2.894e-5
-0.905, -2.809e-5
-0.904, -2.730e-5
-0.903, -2.647e-5
-0.902, -2.567e-5
-0.901, -2.488e-5
-0.900, -2.407e-5
-0.899, -2.327e-5
-0.898, -2.250e-5
-0.897, -2.173e-5
-0.896, -2.090e-5
-0.895, -2.015e-5
-0.894, -1.941e-5
-0.893, -1.871e-5
-0.892, -1.797e-5
-0.891, -1.726e-5
-0.890, -1.652e-5
-0.889, -1.585e-5
-0.888, -1.516e-5
-0.887, -1.444e-5
-0.886, -1.380e-5
-0.885, -1.318e-5
-0.884, -1.255e-5
-0.883, -1.199e-5
-0.882, -1.133e-5
-0.881, -1.074e-5
-0.880, -1.016e-5
-0.879, -9.583e-6
-0.878, -9.046e-6
-0.877, -8.495e-6
-0.876, -7.972e-6
-0.875, -7.446e-6
-0.874, -6.983e-6
-0.873, -6.531e-6
-0.872, -6.033e-6
-0.871, -5.592e-6
-0.870, -5.194e-6
-0.869, -4.742e-6
-0.868, -4.378e-6
-0.867, -3.975e-6
-0.866, -3.639e-6
-0.865, -3.270e-6
-0.864, -2.937e-6
-0.863, -2.608e-6
-0.862, -2.286e-6
-0.861, -2.015e-6
-0.860, -1.706e-6
-0.859, -1.456e-6
-0.858, -1.243e-6
-0.857, -9.679e-7
-0.856, -7.621e-7
-0.855, -5.082e-7
-0.854, -3.014e-7
-0.853, -1.286e-7
-0.852, 8.578e-8
-0.851, 2.480e-7
-0.850, 4.147e-7
-0.849, 5.757e-7
-0.848, 7.026e-7
-0.847, 8.700e-7
-0.846, 9.876e-7
-0.845, 1.148e-6
-0.844, 1.236e-6
-0.843, 1.326e-6
-0.842, 1.433e-6
-0.841, 1.495e-6
-0.840, 1.588e-6
-0.839, 1.666e-6
-0.838, 1.726e-6
-0.837, 1.788e-6
-0.836, 1.848e-6
-0.835, 1.901e-6
-0.834, 1.939e-6
-0.833, 1.974e-6
-0.832, 1.977e-6
-0.831, 2.043e-6
-0.830, 2.079e-6
-0.829, 2.090e-6
-0.828, 2.107e-6
-0.827, 2.142e-6
-0.826, 2.142e-6
-0.825, 2.165e-6
-0.824, 2.169e-6
-0.823, 2.172e-6
-0.822, 2.188e-6
-0.821, 2.180e-6
-0.820, 2.180e-6
-0.819, 2.134e-6
-0.818, 2.154e-6
-0.817, 2.159e-6
-0.816, 2.151e-6
-0.815, 2.150e-6
-0.814, 2.132e-6
-0.813, 2.115e-6
-0.812, 2.120e-6
-0.811, 2.105e-6
-0.810, 2.076e-6
-0.809, 2.068e-6
-0.808, 2.045e-6
-0.807, 2.029e-6
-0.806, 2.006e-6
-0.805, 1.984e-6
-0.804, 1.974e-6
-0.803, 1.955e-6
-0.802, 1.940e-6
-0.801, 1.915e-6
-0.800, 1.900e-6
-0.799, 1.876e-6
-0.798, 1.853e-6
-0.797, 1.825e-6
-0.796, 1.812e-6
-0.795, 1.793e-6
-0.794, 1.782e-6
-0.793, 1.749e-6
-0.792, 1.730e-6
-0.791, 1.706e-6
-0.790, 1.681e-6
-0.789, 1.656e-6
-0.788, 1.633e-6
-0.787, 1.616e-6
-0.786, 1.591e-6
-0.785, 1.568e-6
-0.784, 1.549e-6
-0.783, 1.527e-6
-0.782, 1.509e-6
-0.781, 1.469e-6
-0.780, 1.462e-6
-0.779, 1.445e-6
-0.778, 1.417e-6
-0.777, 1.405e-6
-0.776, 1.381e-6
-0.775, 1.360e-6
-0.774, 1.346e-6
-0.773, 1.319e-6
-0.772, 1.309e-6
-0.771, 1.287e-6
-0.770, 1.269e-6
-0.769, 1.250e-6
-0.768, 1.223e-6
-0.767, 1.221e-6
-0.766, 1.191e-6
-0.765, 1.172e-6
-0.764, 1.160e-6
-0.763, 1.139e-6
-0.762, 1.123e-6
-0.761, 1.109e-6
-0.760, 1.099e-6
-0.759, 1.085e-6
-0.758, 1.060e-6
-0.757, 1.050e-6
-0.756, 1.041e-6
-0.755, 1.014e-6
-0.754, 1.004e-6
-0.753, 9.843e-7
-0.752, 9.789e-7
-0.751, 9.708e-7
-0.750, 9.549e-7
-0.749, 9.312e-7
-0.748, 9.267e-7
-0.747, 9.203e-7
-0.746, 8.982e-7
-0.745, 8.930e-7
-0.744, 8.795e-7
-0.743, 8.732e-7
-0.742, 8.644e-7
-0.741, 8.466e-7
-0.740, 8.384e-7
-0.739, 8.285e-7
-0.738, 8.145e-7
-0.737, 8.070e-7
-0.736, 8.003e-7
-0.735, 7.882e-7
-0.734, 7.745e-7
-0.733, 7.617e-7
-0.732, 7.655e-7
-0.731, 7.545e-7
-0.730, 7.339e-7
-0.729, 7.333e-7
-0.728, 7.228e-7
-0.727, 7.225e-7
-0.726, 7.095e-7
-0.725, 7.002e-7
-0.724, 6.943e-7
-0.723, 6.866e-7
-0.722, 6.812e-7
-0.721, 6.727e-7
-0.720, 6.680e-7
-0.719, 6.641e-7
-0.718, 6.556e-7
-0.717, 6.573e-7
-0.716, 6.465e-7
-0.715, 6.420e-7
-0.714, 6.359e-7
-0.713, 6.255e-7
-0.712, 6.259e-7
-0.711, 6.190e-7
-0.710, 6.148e-7
-0.709, 6.126e-7
-0.708, 6.026e-7
-0.707, 6.064e-7
-0.706, 5.970e-7
-0.705, 5.938e-7
-0.704, 5.822e-7
-0.703, 5.856e-7
-0.702, 5.817e-7
-0.701, 5.751e-7
-0.700, 5.762e-7
-0.699, 5.742e-7
-0.698, 5.621e-7
-0.697, 5.663e-7
-0.696, 5.598e-7
-0.695, 5.593e-7
-0.694, 5.556e-7
-0.693, 5.469e-7
-0.692, 5.535e-7
-0.691, 5.539e-7
-0.690, 5.451e-7
-0.689, 5.433e-7
-0.688, 5.319e-7
-0.687, 5.384e-7
-0.686, 5.336e-7
-0.685, 5.256e-7
-0.684, 5.302e-7
-0.683, 5.242e-7
-0.682, 5.219e-7
-0.681, 5.204e-7
-0.680, 5.164e-7
-0.679, 5.078e-7
-0.678, 5.088e-7
-0.677, 5.074e-7
-0.676, 5.069e-7
-0.675, 5.051e-7
-0.674, 4.964e-7
-0.673, 4.939e-7
-0.672, 4.952e-7
-0.671, 4.895e-7
-0.670, 4.889e-7
-0.669, 4.769e-7
-0.668, 4.775e-7
-0.667, 4.772e-7
-0.666, 4.641e-7
-0.665, 4.700e-7
-0.664, 4.554e-7
-0.663, 4.577e-7
-0.662, 4.537e-7
-0.661, 4.436e-7
-0.660, 4.414e-7
-0.659, 4.310e-7
-0.658, 4.285e-7
-0.657, 4.260e-7
-0.656, 4.178e-7
-0.655, 4.164e-7
-0.654, 4.047e-7
-0.653, 3.956e-7
-0.652, 3.996e-7
-0.651, 3.951e-7
-0.650, 3.880e-7
-0.649, 3.839e-7
-0.648, 3.768e-7
-0.647, 3.818e-7
-0.646, 3.708e-7
-0.645, 3.661e-7
-0.644, 3.617e-7
-0.643, 3.618e-7
-0.642, 3.579e-7
-0.641, 3.528e-7
-0.640, 3.578e-7
-0.639, 3.434e-7
-0.638, 3.422e-7
-0.637, 3.401e-7
-0.636, 3.328e-7
-0.635, 3.336e-7
-0.634, 3.242e-7
-0.633, 3.236e-7
-0.632, 3.218e-7
-0.631, 3.169e-7
-0.630, 3.122e-7
-0.629, 3.047e-7
-0.628, 3.062e-7
-0.627, 3.019e-7
-0.626, 2.978e-7
-0.625, 2.966e-7
-0.624, 2.937e-7
-0.623, 2.902e-7
-0.622, 2.926e-7
-0.621, 2.810e-7
-0.620, 2.823e-7
-0.619, 2.807e-7
-0.618, 2.752e-7
-0.617, 2.751e-7
-0.616, 2.699e-7
-0.615, 2.555e-7
-0.614, 2.605e-7
-0.613, 2.584e-7
-0.612, 2.645e-7
-0.611, 2.564e-7
-0.610, 2.532e-7
-0.609, 2.515e-7
-0.608, 2.512e-7
-0.607, 2.492e-7
-0.606, 2.474e-7
-0.605, 2.411e-7
-0.604, 2.415e-7
-0.603, 2.377e-7
-0.602, 2.292e-7
-0.601, 2.308e-7
-0.600, 2.281e-7
-0.599, 2.284e-7
-0.598, 2.246e-7
-0.597, 2.226e-7
-0.596, 2.217e-7
-0.595, 2.225e-7
-0.594, 2.114e-7
-0.593, 2.135e-7
-0.592, 2.141e-7
-0.591, 2.099e-7
-0.590, 2.077e-7
-0.589, 2.099e-7
-0.588, 2.024e-7
-0.587, 2.039e-7
-0.586, 1.979e-7
-0.585, 1.956e-7
-0.584, 1.887e-7
-0.583, 1.890e-7
-0.582, 1.927e-7
-0.581, 1.802e-7
-0.580, 1.849e-7
-0.579, 1.802e-7
-0.578, 1.715e-7
-0.577, 1.773e-7
-0.576, 1.659e-7
-0.575, 1.693e-7
-0.574, 1.650e-7
-0.573, 1.594e-7
-0.572, 1.682e-7
-0.571, 1.616e-7
-0.570, 1.547e-7
-0.569, 1.569e-7
-0.568, 1.516e-7
-0.567, 1.539e-7
-0.566, 1.471e-7
-0.565, 1.449e-7
-0.564, 1.454e-7
-0.563, 1.398e-7
-0.562, 1.442e-7
-0.561, 1.373e-7
-0.560, 1.366e-7
-0.559, 1.360e-7
-0.558, 1.312e-7
-0.557, 1.314e-7
-0.556, 1.303e-7
-0.555, 1.246e-7
-0.554, 1.222e-7
-0.553, 1.194e-7
-0.552, 1.259e-7
-0.551, 1.139e-7
-0.550, 1.141e-7
-0.549, 1.123e-7
-0.548, 1.103e-7
-0.547, 1.163e-7
-0.546, 1.047e-7
-0.545, 1.094e-7
-0.544, 1.051e-7
-0.543, 1.031e-7
-0.542, 1.046e-7
-0.541, 9.357e-8
-0.540, 1.022e-7
-0.539, 9.952e-8
-0.538, 1.002e-7
-0.537, 9.718e-8
-0.536, 8.938e-8
-0.535, 9.192e-8
-0.534, 8.782e-8
-0.533, 8.685e-8
-0.532, 8.919e-8
-0.531, 8.354e-8
-0.530, 8.168e-8
-0.529, 8.324e-8
-0.528, 8.051e-8
-0.527, 7.818e-8
-0.526, 7.515e-8
-0.525, 6.726e-8
-0.524, 7.330e-8
-0.523, 7.291e-8
-0.522, 6.902e-8
-0.521, 6.668e-8
-0.520, 6.960e-8
-0.519, 6.648e-8
-0.518, 6.317e-8
-0.517, 6.307e-8
-0.516, 6.151e-8
-0.515, 6.785e-8
-0.514, 6.112e-8
-0.513, 5.937e-8
-0.512, 6.648e-8
-0.511, 5.800e-8
-0.510, 5.859e-8
-0.509, 5.683e-8
-0.508, 5.323e-8
-0.507, 6.151e-8
-0.506, 4.602e-8
-0.505, 5.401e-8
-0.504, 5.420e-8
-0.503, 5.011e-8
-0.502, 5.303e-8
-0.501, 4.114e-8
-0.500, 4.952e-8
-0.499, 3.725e-8
-0.498, 4.046e-8
-0.497, 4.719e-8
-0.496, 4.416e-8
-0.495, 4.572e-8
-0.494, 4.446e-8
-0.493, 3.832e-8
-0.492, 4.797e-8
-0.491, 4.563e-8
-0.490, 4.144e-8
-0.489, 4.348e-8
-0.488, 3.773e-8
-0.487, 5.274e-8
-0.486, 4.124e-8
-0.485, 4.124e-8
-0.484, 3.949e-8
-0.483, 4.241e-8
-0.482, 4.378e-8
-0.481, 4.290e-8
-0.480, 4.192e-8
-0.479, 4.134e-8
-0.478, 4.066e-8
-0.477, 4.309e-8
-0.476, 4.290e-8
-0.475, 4.504e-8
-0.474, 3.247e-8
-0.473, 3.734e-8
-0.472, 4.680e-8
-0.471, 4.105e-8
-0.470, 4.339e-8
-0.469, 3.919e-8
-0.468, 4.339e-8
-0.467, 4.836e-8
-0.466, 4.134e-8
-0.465, 4.231e-8
-0.464, 4.504e-8
-0.463, 4.845e-8
-0.462, 5.128e-8
-0.461, 3.978e-8
-0.460, 4.797e-8
-0.459, 4.787e-8
-0.458, 4.631e-8
-0.457, 5.508e-8
-0.456, 4.719e-8
-0.455, 5.216e-8
-0.454, 5.313e-8
-0.453, 5.235e-8
-0.452, 6.015e-8
-0.451, 5.420e-8
-0.450, 5.313e-8
-0.449, 5.449e-8
-0.448, 5.274e-8
-0.447, 6.229e-8
-0.446, 5.644e-8
-0.445, 5.625e-8
-0.444, 6.044e-8
-0.443, 6.599e-8
-0.442, 6.434e-8
-0.441, 5.771e-8
-0.440, 6.356e-8
-0.439, 6.746e-8
-0.438, 6.443e-8
-0.437, 6.531e-8
-0.436, 6.921e-8
-0.435, 7.584e-8
-0.434, 6.960e-8
-0.433, 7.204e-8
-0.432, 7.350e-8
-0.431, 7.067e-8
-0.430, 7.876e-8
-0.429, 6.921e-8
-0.428, 7.866e-8
-0.427, 8.120e-8
-0.426, 7.330e-8
-0.425, 7.720e-8
-0.424, 7.905e-8
-0.423, 7.223e-8
-0.422, 8.315e-8
-0.421, 7.593e-8
-0.420, 8.324e-8
-0.419, 8.266e-8
-0.418, 8.324e-8
-0.417, 8.685e-8
-0.416, 8.393e-8
-0.415, 8.977e-8
-0.414, 8.685e-8
-0.413, 8.753e-8
-0.412, 9.387e-8
-0.411, 9.084e-8
-0.410, 6.560e-8
-0.409, 8.607e-8
-0.408, 8.831e-8
-0.407, 9.396e-8
-0.406, 9.270e-8
-0.405, 9.084e-8
-0.404, 9.767e-8
-0.403, 9.523e-8
-0.402, 9.913e-8
-0.401, 9.640e-8
-0.400, 9.981e-8
-0.399, 1.009e-7
-0.398, 1.005e-7
-0.397, 9.503e-8
-0.396, 1.035e-7
-0.395, 1.055e-7
-0.394, 1.012e-7
-0.393, 1.029e-7
-0.392, 1.083e-7
-0.391, 1.082e-7
-0.390, 1.080e-7
-0.389, 1.062e-7
-0.388, 1.112e-7
-0.387, 1.148e-7
-0.386, 1.076e-7
-0.385, 1.109e-7
-0.384, 1.196e-7
-0.383, 1.155e-7
-0.382, 1.186e-7
-0.381, 1.133e-7
-0.380, 1.172e-7
-0.379, 1.178e-7
-0.378, 1.166e-7
-0.377, 1.221e-7
-0.376, 1.183e-7
-0.375, 1.197e-7
-0.374, 1.189e-7
-0.373, 1.212e-7
-0.372, 1.237e-7
-0.371, 1.188e-7
-0.370, 1.205e-7
-0.369, 1.248e-7
-0.368, 1.282e-7
-0.367, 1.289e-7
-0.366, 1.272e-7
-0.365, 1.233e-7
-0.364, 1.282e-7
-0.363, 1.349e-7
-0.362, 1.308e-7
-0.361, 1.287e-7
-0.360, 1.340e-7
-0.359, 1.317e-7
-0.358, 1.362e-7
-0.357, 1.341e-7
-0.356, 1.332e-7
-0.355, 1.388e-7
-0.354, 1.350e-7
-0.353, 1.410e-7
-0.352, 1.378e-7
-0.351, 1.362e-7
-0.350, 1.393e-7
-0.349, 1.425e-7
-0.348, 1.433e-7
-0.347, 1.463e-7
-0.346, 1.313e-7
-0.345, 1.409e-7
-0.344, 1.432e-7
-0.343, 1.511e-7
-0.342, 1.507e-7
-0.341, 1.441e-7
-0.340, 1.476e-7
-0.339, 1.508e-7
-0.338, 1.524e-7
-0.337, 1.508e-7
-0.336, 1.474e-7
-0.335, 1.555e-7
-0.334, 1.543e-7
-0.333, 1.616e-7
-0.332, 1.584e-7
-0.331, 1.591e-7
-0.330, 1.593e-7
-0.329, 1.584e-7
-0.328, 1.623e-7
-0.327, 1.619e-7
-0.326, 1.584e-7
-0.325, 1.614e-7
-0.324, 1.651e-7
-0.323, 1.671e-7
-0.322, 1.634e-7
-0.321, 1.641e-7
-0.320, 1.594e-7
-0.319, 1.678e-7
-0.318, 1.729e-7
-0.317, 1.680e-7
-0.316, 1.695e-7
-0.315, 1.749e-7
-0.314, 1.709e-7
-0.313, 1.797e-7
-0.312, 1.781e-7
-0.311, 1.751e-7
-0.310, 1.823e-7
-0.309, 1.754e-7
-0.308, 1.840e-7
-0.307, 1.909e-7
-0.306, 1.801e-7
-0.305, 1.868e-7
-0.304, 1.851e-7
-0.303, 1.919e-7
-0.302, 1.887e-7
-0.301, 1.883e-7
-0.300, 1.907e-7
-0.299, 1.939e-7
-0.298, 1.916e-7
-0.297, 1.963e-7
-0.296, 1.928e-7
-0.295, 1.933e-7
-0.294, 1.962e-7
-0.293, 1.979e-7
-0.292, 2.022e-7
-0.291, 2.029e-7
-0.290, 2.022e-7
-0.289, 2.061e-7
-0.288, 2.053e-7
-0.287, 2.065e-7
-0.286, 2.069e-7
-0.285, 2.098e-7
-0.284, 2.109e-7
-0.283, 2.164e-7
-0.282, 2.205e-7
-0.281, 2.159e-7
-0.280, 2.177e-7
-0.279, 2.193e-7
-0.278, 2.225e-7
-0.277, 2.225e-7
-0.276, 2.226e-7
-0.275, 2.260e-7
-0.274, 2.242e-7
-0.273, 2.272e-7
-0.272, 2.316e-7
-0.271, 2.276e-7
-0.270, 2.327e-7
-0.269, 2.248e-7
-0.268, 2.340e-7
-0.267, 2.420e-7
-0.266, 2.321e-7
-0.265, 2.362e-7
-0.264, 2.404e-7
-0.263, 2.451e-7
-0.262, 2.429e-7
-0.261, 2.408e-7
-0.260, 2.480e-7
-0.259, 2.465e-7
-0.258, 2.463e-7
-0.257, 2.531e-7
-0.256, 2.476e-7
-0.255, 2.516e-7
-0.254, 2.568e-7
-0.253, 2.520e-7
-0.252, 2.635e-7
-0.251, 2.597e-7
-0.250, 2.587e-7
-0.249, 2.621e-7
-0.248, 2.632e-7
-0.247, 2.688e-7
-0.246, 2.659e-7
-0.245, 2.656e-7
-0.244, 2.710e-7
-0.243, 2.688e-7
-0.242, 2.730e-7
-0.241, 2.730e-7
-0.240, 2.749e-7
-0.239, 2.805e-7
-0.238, 2.778e-7
-0.237, 2.787e-7
-0.236, 2.803e-7
-0.235, 2.881e-7
-0.234, 2.816e-7
-0.233, 2.876e-7
-0.232, 2.910e-7
-0.231, 2.948e-7
-0.230, 2.953e-7
-0.229, 2.912e-7
-0.228, 2.950e-7
-0.227, 2.999e-7
-0.226, 2.941e-7
-0.225, 3.001e-7
-0.224, 3.021e-7
-0.223, 3.045e-7
-0.222, 3.055e-7
-0.221, 3.010e-7
-0.220, 3.093e-7
-0.219, 3.100e-7
-0.218, 3.039e-7
-0.217, 3.106e-7
-0.216, 3.120e-7
-0.215, 3.198e-7
-0.214, 3.190e-7
-0.213, 3.140e-7
-0.212, 3.222e-7
-0.211, 3.220e-7
-0.210, 3.257e-7
-0.209, 3.234e-7
-0.208, 3.248e-7
-0.207, 3.302e-7
-0.206, 3.318e-7
-0.205, 3.125e-7
-0.204, 3.320e-7
-0.203, 3.305e-7
-0.202, 3.357e-7
-0.201, 3.392e-7
-0.200, 3.387e-7
-0.199, 3.431e-7
-0.198, 3.423e-7
-0.197, 3.435e-7
-0.196, 3.465e-7
-0.195, 3.486e-7
-0.194, 3.470e-7
-0.193, 3.506e-7
-0.192, 3.435e-7
-0.191, 3.522e-7
-0.190, 3.567e-7
-0.189, 3.566e-7
-0.188, 3.562e-7
-0.187, 3.596e-7
-0.186, 3.578e-7
-0.185, 3.654e-7
-0.184, 3.611e-7
-0.183, 3.674e-7
-0.182, 3.698e-7
-0.181, 3.650e-7
-0.180, 3.737e-7
-0.179, 3.771e-7
-0.178, 3.740e-7
-0.177, 3.742e-7
-0.176, 3.769e-7
-0.175, 3.812e-7
-0.174, 3.779e-7
-0.173, 3.793e-7
-0.172, 3.852e-7
-0.171, 3.830e-7
-0.170, 3.853e-7
-0.169, 3.856e-7
-0.168, 3.895e-7
-0.167, 3.888e-7
-0.166, 3.895e-7
-0.165, 3.942e-7
-0.164, 3.922e-7
-0.163, 3.985e-7
-0.162, 3.974e-7
-0.161, 3.971e-7
-0.160, 4.021e-7
-0.159, 4.030e-7
-0.158, 4.053e-7
-0.157, 4.040e-7
-0.156, 4.051e-7
-0.155, 4.103e-7
-0.154, 4.070e-7
-0.153, 4.091e-7
-0.152, 4.143e-7
-0.151, 4.129e-7
-0.150, 4.186e-7
-0.149, 4.173e-7
-0.148, 4.204e-7
-0.147, 4.257e-7
-0.146, 4.197e-7
-0.145, 4.278e-7
-0.144, 4.262e-7
-0.143, 4.321e-7
-0.142, 4.321e-7
-0.141, 4.167e-7
-0.140, 4.371e-7
-0.139, 4.367e-7
-0.138, 4.356e-7
-0.137, 4.388e-7
-0.136, 4.373e-7
-0.135, 4.460e-7
-0.134, 4.444e-7
-0.133, 4.455e-7
-0.132, 4.483e-7
-0.131, 4.442e-7
-0.130, 4.530e-7
-0.129, 4.525e-7
-0.128, 4.638e-7
-0.127, 4.592e-7
-0.126, 4.545e-7
-0.125, 4.611e-7
-0.124, 4.635e-7
-0.123, 4.678e-7
-0.122, 4.638e-7
-0.121, 4.621e-7
-0.120, 4.701e-7
-0.119, 4.720e-7
-0.118, 4.732e-7
-0.117, 4.744e-7
-0.116, 4.716e-7
-0.115, 4.757e-7
-0.114, 4.771e-7
-0.113, 4.789e-7
-0.112, 4.803e-7
-0.111, 4.798e-7
-0.110, 4.883e-7
-0.109, 4.834e-7
-0.108, 4.895e-7
-0.107, 4.913e-7
-0.106, 4.868e-7
-0.105, 4.953e-7
-0.104, 4.956e-7
-0.103, 5.009e-7
-0.102, 5.002e-7
-0.101, 4.958e-7
-0.100, 5.071e-7
-0.099, 5.037e-7
-0.098, 5.042e-7
-0.097, 5.071e-7
-0.096, 5.072e-7
-0.095, 5.118e-7
-0.094, 5.127e-7
-0.093, 5.120e-7
-0.092, 5.161e-7
-0.091, 5.155e-7
-0.090, 5.138e-7
-0.089, 5.185e-7
-0.088, 5.200e-7
-0.087, 5.241e-7
-0.086, 5.223e-7
-0.085, 5.273e-7
-0.084, 5.298e-7
-0.083, 5.335e-7
-0.082, 5.295e-7
-0.081, 5.326e-7
-0.080, 5.389e-7
-0.079, 5.402e-7
-0.078, 5.406e-7
-0.077, 5.506e-7
-0.076, 5.466e-7
-0.075, 5.528e-7
-0.074, 5.431e-7
-0.073, 5.501e-7
-0.072, 5.552e-7
-0.071, 5.550e-7
-0.070, 5.592e-7
-0.069, 5.563e-7
-0.068, 5.635e-7
-0.067, 5.656e-7
-0.066, 5.631e-7
-0.065, 5.694e-7
-0.064, 5.594e-7
-0.063, 5.745e-7
-0.062, 5.737e-7
-0.061, 5.710e-7
-0.060, 5.819e-7
-0.059, 5.800e-7
-0.058, 5.797e-7
-0.057, 5.864e-7
-0.056, 5.850e-7
-0.055, 5.899e-7
-0.054, 5.887e-7
-0.053, 5.924e-7
-0.052, 5.957e-7
-0.051, 5.965e-7
-0.050, 6.000e-7
-0.049, 5.992e-7
-0.048, 6.048e-7
-0.047, 6.074e-7
-0.046, 6.070e-7
-0.045, 6.092e-7
-0.044, 6.123e-7
-0.043, 6.170e-7
-0.042, 6.162e-7
-0.041, 6.191e-7
-0.040, 6.248e-7
-0.039, 6.212e-7
-0.038, 6.269e-7
-0.037, 6.269e-7
-0.036, 6.289e-7
-0.035, 6.378e-7
-0.034, 6.337e-7
-0.033, 6.399e-7
-0.032, 6.400e-7
-0.031, 6.406e-7
-0.030, 6.489e-7
-0.029, 6.490e-7
-0.028, 6.539e-7
-0.027, 6.562e-7
-0.026, 6.631e-7
-0.025, 6.587e-7
-0.024, 6.640e-7
-0.023, 6.680e-7
-0.022, 6.699e-7
-0.021, 6.680e-7
-0.020, 6.742e-7
-0.019, 6.786e-7
-0.018, 6.818e-7
-0.017, 6.764e-7
-0.016, 6.848e-7
-0.015, 6.910e-7
-0.014, 6.945e-7
-0.013, 6.835e-7
-0.012, 6.973e-7
-0.011, 6.973e-7
-0.010, 7.048e-7
-0.009, 7.066e-7
-0.008, 7.096e-7
-0.007, 7.085e-7
-0.006, 7.146e-7
-0.005, 7.194e-7
-0.004, 7.217e-7
-0.003, 7.269e-7
-0.002, 7.246e-7
-0.001, 7.286e-7
-0.000, 7.087e-7
0.001, 7.330e-7
0.002, 7.363e-7
0.003, 7.336e-7
0.004, 7.436e-7
0.005, 7.486e-7
0.006, 7.485e-7
0.007, 7.539e-7
0.008, 7.508e-7
0.009, 7.594e-7
0.010, 7.644e-7
0.011, 7.644e-7
0.012, 7.673e-7
0.013, 7.647e-7
0.014, 7.703e-7
0.015, 7.797e-7
0.016, 7.771e-7
0.017, 7.857e-7
0.018, 7.813e-7
0.019, 7.878e-7
0.020, 7.972e-7
0.021, 7.942e-7
0.022, 7.965e-7
0.023, 8.004e-7
0.024, 8.056e-7
0.025, 8.191e-7
0.026, 8.170e-7
0.027, 8.154e-7
0.028, 8.194e-7
0.029, 8.216e-7
0.030, 8.272e-7
0.031, 8.310e-7
0.032, 8.301e-7
0.033, 8.341e-7
0.034, 8.384e-7
0.035, 8.423e-7
0.036, 8.453e-7
0.037, 8.479e-7
0.038, 8.392e-7
0.039, 8.524e-7
0.040, 8.592e-7
0.041, 8.592e-7
0.042, 8.608e-7
0.043, 8.600e-7
0.044, 8.692e-7
0.045, 8.717e-7
0.046, 8.747e-7
0.047, 8.750e-7
0.048, 8.756e-7
0.049, 8.844e-7
0.050, 8.899e-7
0.051, 8.850e-7
0.052, 8.912e-7
0.053, 8.973e-7
0.054, 8.993e-7
0.055, 9.035e-7
0.056, 9.049e-7
0.057, 9.102e-7
0.058, 9.101e-7
0.059, 9.105e-7
0.060, 9.210e-7
0.061, 9.209e-7
0.062, 9.226e-7
0.063, 9.258e-7
0.064, 9.240e-7
0.065, 9.336e-7
0.066, 9.319e-7
0.067, 9.393e-7
0.068, 9.428e-7
0.069, 9.435e-7
0.070, 9.443e-7
0.071, 9.489e-7
0.072, 9.554e-7
0.073, 9.587e-7
0.074, 9.604e-7
0.075, 9.614e-7
0.076, 9.689e-7
0.077, 9.775e-7
0.078, 9.710e-7
0.079, 9.774e-7
0.080, 9.778e-7
0.081, 9.814e-7
0.082, 9.854e-7
0.083, 9.818e-7
0.084, 9.891e-7
0.085, 9.933e-7
0.086, 9.893e-7
0.087, 9.988e-7
0.088, 9.979e-7
0.089, 9.974e-7
0.090, 1.005e-6
0.091, 1.006e-6
0.092, 1.012e-6
0.093, 1.010e-6
0.094, 1.013e-6
0.095, 1.020e-6
0.096, 1.019e-6
0.097, 1.029e-6
0.098, 1.027e-6
0.099, 1.023e-6
0.100, 1.033e-6
0.101, 1.034e-6
0.102, 1.044e-6
0.103, 1.039e-6
0.104, 1.042e-6
0.105, 1.048e-6
0.106, 1.051e-6
0.107, 1.052e-6
0.108, 1.051e-6
0.109, 1.055e-6
0.110, 1.061e-6
0.111, 1.060e-6
0.112, 1.061e-6
0.113, 1.066e-6
0.114, 1.070e-6
0.115, 1.064e-6
0.116, 1.075e-6
0.117, 1.076e-6
0.118, 1.077e-6
0.119, 1.078e-6
0.120, 1.085e-6
0.121, 1.084e-6
0.122, 1.087e-6
0.123, 1.089e-6
0.124, 1.093e-6
0.125, 1.099e-6
0.126, 1.095e-6
0.127, 1.099e-6
0.128, 1.106e-6
0.129, 1.109e-6
0.130, 1.112e-6
0.131, 1.108e-6
0.132, 1.110e-6
0.133, 1.115e-6
0.134, 1.112e-6
0.135, 1.125e-6
0.136, 1.122e-6
0.137, 1.126e-6
0.138, 1.127e-6
0.139, 1.125e-6
0.140, 1.133e-6
0.141, 1.125e-6
0.142, 1.130e-6
0.143, 1.138e-6
0.144, 1.135e-6
0.145, 1.148e-6
0.146, 1.144e-6
0.147, 1.143e-6
0.148, 1.152e-6
0.149, 1.152e-6
0.150, 1.154e-6
0.151, 1.156e-6
0.152, 1.159e-6
0.153, 1.164e-6
0.154, 1.163e-6
0.155, 1.171e-6
0.156, 1.167e-6
0.157, 1.172e-6
0.158, 1.175e-6
0.159, 1.178e-6
0.160, 1.183e-6
0.161, 1.183e-6
0.162, 1.187e-6
0.163, 1.187e-6
0.164, 1.192e-6
0.165, 1.198e-6
0.166, 1.188e-6
0.167, 1.196e-6
0.168, 1.202e-6
0.169, 1.204e-6
0.170, 1.208e-6
0.171, 1.206e-6
0.172, 1.212e-6
0.173, 1.213e-6
0.174, 1.213e-6
0.175, 1.221e-6
0.176, 1.220e-6
0.177, 1.223e-6
0.178, 1.227e-6
0.179, 1.232e-6
0.180, 1.239e-6
0.181, 1.232e-6
0.182, 1.236e-6
0.183, 1.238e-6
0.184, 1.239e-6
0.185, 1.244e-6
0.186, 1.244e-6
0.187, 1.244e-6
0.188, 1.250e-6
0.189, 1.253e-6
0.190, 1.253e-6
0.191, 1.255e-6
0.192, 1.249e-6
0.193, 1.260e-6
0.194, 1.261e-6
0.195, 1.262e-6
0.196, 1.265e-6
0.197, 1.271e-6
0.198, 1.268e-6
0.199, 1.272e-6
0.200, 1.276e-6
0.201, 1.276e-6
0.202, 1.281e-6
0.203, 1.279e-6
0.204, 1.279e-6
0.205, 1.271e-6
0.206, 1.279e-6
0.207, 1.286e-6
0.208, 1.288e-6
0.209, 1.292e-6
0.210, 1.295e-6
0.211, 1.292e-6
0.212, 1.303e-6
0.213, 1.302e-6
0.214, 1.301e-6
0.215, 1.309e-6
0.216, 1.306e-6
0.217, 1.309e-6
0.218, 1.310e-6
0.219, 1.311e-6
0.220, 1.321e-6
0.221, 1.320e-6
0.222, 1.324e-6
0.223, 1.327e-6
0.224, 1.327e-6
0.225, 1.338e-6
0.226, 1.335e-6
0.227, 1.337e-6
0.228, 1.345e-6
0.229, 1.345e-6
0.230, 1.362e-6
0.231, 1.352e-6
0.232, 1.364e-6
0.233, 1.365e-6
0.234, 1.368e-6
0.235, 1.373e-6
0.236, 1.379e-6
0.237, 1.386e-6
0.238, 1.385e-6
0.239, 1.393e-6
0.240, 1.400e-6
0.241, 1.402e-6
0.242, 1.411e-6
0.243, 1.404e-6
0.244, 1.419e-6
0.245, 1.428e-6
0.246, 1.430e-6
0.247, 1.435e-6
0.248, 1.444e-6
0.249, 1.451e-6
0.250, 1.461e-6
0.251, 1.458e-6
0.252, 1.471e-6
0.253, 1.475e-6
0.254, 1.481e-6
0.255, 1.495e-6
0.256, 1.491e-6
0.257, 1.505e-6
0.258, 1.512e-6
0.259, 1.517e-6
0.260, 1.532e-6
0.261, 1.537e-6
0.262, 1.542e-6
0.263, 1.553e-6
0.264, 1.559e-6
0.265, 1.578e-6
0.266, 1.581e-6
0.267, 1.583e-6
0.268, 1.595e-6
0.269, 1.601e-6
0.270, 1.616e-6
0.271, 1.621e-6
0.272, 1.629e-6
0.273, 1.643e-6
0.274, 1.657e-6
0.275, 1.669e-6
0.276, 1.673e-6
0.277, 1.690e-6
0.278, 1.697e-6
0.279, 1.711e-6
0.280, 1.727e-6
0.281, 1.741e-6
0.282, 1.752e-6
0.283, 1.760e-6
0.284, 1.777e-6
0.285, 1.793e-6
0.286, 1.798e-6
0.287, 1.814e-6
0.288, 1.824e-6
0.289, 1.844e-6
0.290, 1.860e-6
0.291, 1.864e-6
0.292, 1.886e-6
0.293, 1.903e-6
0.294, 1.908e-6
0.295, 1.932e-6
0.296, 1.942e-6
0.297, 1.962e-6
0.298, 1.982e-6
0.299, 1.993e-6
0.300, 2.020e-6
0.301, 2.030e-6
0.302, 2.051e-6
0.303, 2.069e-6
0.304, 2.087e-6
0.305, 2.112e-6
0.306, 2.128e-6
0.307, 2.158e-6
0.308, 2.179e-6
0.309, 2.203e-6
0.310, 2.221e-6
0.311, 2.244e-6
0.312, 2.267e-6
0.313, 2.295e-6
0.314, 2.316e-6
0.315, 2.339e-6
0.316, 2.369e-6
0.317, 2.400e-6
0.318, 2.422e-6
0.319, 2.455e-6
0.320, 2.471e-6
0.321, 2.504e-6
0.322, 2.538e-6
0.323, 2.564e-6
0.324, 2.599e-6
0.325, 2.636e-6
0.326, 2.665e-6
0.327, 2.703e-6
0.328, 2.739e-6
0.329, 2.776e-6
0.330, 2.816e-6
0.331, 2.842e-6
0.332, 2.895e-6
0.333, 2.946e-6
0.334, 2.977e-6
0.335, 3.019e-6
0.336, 3.059e-6
0.337, 3.108e-6
0.338, 3.158e-6
0.339, 3.204e-6
0.340, 3.258e-6
0.341, 3.306e-6
0.342, 3.353e-6
0.343, 3.409e-6
0.344, 3.459e-6
0.345, 3.519e-6
0.346, 3.570e-6
0.347, 3.639e-6
0.348, 3.701e-6
0.349, 3.775e-6
0.350, 3.842e-6
0.351, 3.913e-6
0.352, 3.984e-6
0.353, 4.058e-6
0.354, 4.142e-6
0.355, 4.214e-6
0.356, 4.295e-6
0.357, 4.387e-6
0.358, 4.455e-6
0.359, 4.552e-6
0.360, 4.645e-6
0.361, 4.745e-6
0.362, 4.847e-6
0.363, 4.937e-6
0.364, 5.050e-6
0.365, 5.166e-6
0.366, 5.270e-6
0.367, 5.396e-6
0.368, 5.504e-6
0.369, 5.642e-6
0.370, 5.776e-6
0.371, 5.859e-6
0.372, 6.023e-6
0.373, 6.173e-6
0.374, 6.328e-6
0.375, 6.476e-6
0.376, 6.623e-6
0.377, 6.801e-6
0.378, 6.965e-6
0.379, 7.134e-6
0.380, 7.323e-6
0.381, 7.506e-6
0.382, 7.709e-6
0.383, 7.903e-6
0.384, 8.170e-6
0.385, 8.364e-6
0.386, 8.550e-6
0.387, 8.787e-6
0.388, 9.029e-6
0.389, 9.291e-6
0.390, 9.532e-6
0.391, 9.771e-6
0.392, 1.006e-5
0.393, 1.033e-5
0.394, 1.063e-5
0.395, 1.091e-5
0.396, 1.121e-5
0.397, 1.148e-5
0.398, 1.184e-5
0.399, 1.220e-5
0.400, 1.253e-5
0.401, 1.291e-5
0.402, 1.328e-5
0.403, 1.364e-5
0.404, 1.407e-5
0.405, 1.447e-5
0.406, 1.487e-5
0.407, 1.534e-5
0.408, 1.576e-5
0.409, 1.610e-5
0.410, 1.644e-5
0.411, 1.699e-5
0.412, 1.758e-5
0.413, 1.808e-5
0.414, 1.863e-5
0.415, 1.917e-5
0.416, 1.968e-5
0.417, 2.038e-5
0.418, 2.092e-5
0.419, 2.154e-5
0.420, 2.218e-5
0.421, 2.280e-5
0.422, 2.339e-5
0.423, 2.406e-5
0.424, 2.477e-5
0.425, 2.551e-5
0.426, 2.625e-5
0.427, 2.701e-5
0.428, 2.774e-5
0.429, 2.852e-5
0.430, 2.930e-5
0.431, 3.005e-5
0.432, 3.089e-5
0.433, 3.176e-5
0.434, 3.264e-5
0.435, 3.366e-5
0.436, 3.448e-5
0.437, 3.545e-5
0.438, 3.633e-5
0.439, 3.723e-5
0.440, 3.819e-5
0.441, 3.911e-5
0.442, 4.014e-5
0.443, 4.109e-5
0.444, 4.221e-5
0.445, 4.312e-5
0.446, 4.415e-5
0.447, 4.524e-5
0.448, 4.593e-5
0.449, 4.719e-5
0.450, 4.831e-5
0.451, 4.927e-5
0.452, 5.055e-5
0.453, 5.146e-5
0.454, 5.265e-5
0.455, 5.369e-5
0.456, 5.476e-5
0.457, 5.597e-5
0.458, 5.686e-5
0.459, 5.803e-5
0.460, 5.900e-5
0.461, 5.991e-5
0.462, 6.109e-5
0.463, 6.200e-5
0.464, 6.312e-5
0.465, 6.413e-5
0.466, 6.516e-5
0.467, 6.607e-5
0.468, 6.706e-5
0.469, 6.807e-5
0.470, 6.900e-5
0.471, 6.991e-5
0.472, 7.087e-5
0.473, 7.175e-5
0.474, 7.251e-5
0.475, 7.345e-5
0.476, 7.436e-5
0.477, 7.530e-5
0.478, 7.612e-5
0.479, 7.720e-5
0.480, 7.789e-5
0.481, 7.875e-5
0.482, 7.973e-5
0.483, 8.038e-5
0.484, 8.122e-5
0.485, 8.191e-5
0.486, 8.283e-5
0.487, 8.359e-5
0.488, 8.386e-5
0.489, 8.475e-5
0.490, 8.506e-5
0.491, 8.566e-5
0.492, 8.634e-5
0.493, 8.665e-5
0.494, 8.721e-5
0.495, 8.763e-5
0.496, 8.800e-5
0.497, 8.849e-5
0.498, 8.889e-5
0.499, 8.907e-5
0.500, 8.955e-5
0.501, 8.982e-5
0.502, 9.027e-5
0.503, 9.053e-5
0.504, 9.081e-5
0.505, 9.111e-5
0.506, 9.130e-5
0.507, 9.161e-5
0.508, 9.172e-5
0.509, 9.203e-5
0.510, 9.223e-5
0.511, 9.244e-5
0.512, 9.281e-5
0.513, 9.288e-5
0.514, 9.307e-5
0.515, 9.320e-5
0.516, 9.336e-5
0.517, 9.356e-5
0.518, 9.369e-5
0.519, 9.388e-5
0.520, 9.399e-5
0.521, 9.422e-5
0.522, 9.437e-5
0.523, 9.448e-5
0.524, 9.473e-5
0.525, 9.471e-5
0.526, 9.498e-5
0.527, 9.523e-5
0.528, 9.536e-5
0.529, 9.566e-5
0.530, 9.591e-5
0.531, 9.605e-5
0.532, 9.633e-5
0.533, 9.649e-5
0.534, 9.675e-5
0.535, 9.698e-5
0.536, 9.718e-5
0.537, 9.753e-5
0.538, 9.780e-5
0.539, 9.800e-5
0.540, 9.825e-5
0.541, 9.851e-5
0.542, 9.879e-5
0.543, 9.901e-5
0.544, 9.925e-5
0.545, 9.953e-5
0.546, 9.982e-5
0.547, 1.001e-4
0.548, 1.003e-4
0.549, 1.006e-4
0.550, 1.009e-4
0.551, 1.011e-4
0.552, 1.014e-4
0.553, 1.016e-4
0.554, 1.019e-4
0.555, 1.021e-4
0.556, 1.023e-4
0.557, 1.026e-4
0.558, 1.028e-4
0.559, 1.030e-4
0.560, 1.031e-4
0.561, 1.033e-4
0.562, 1.035e-4
0.563, 1.036e-4
0.564, 1.038e-4
0.565, 1.039e-4
0.566, 1.041e-4
0.567, 1.042e-4
0.568, 1.043e-4
0.569, 1.044e-4
0.570, 1.045e-4
0.571, 1.046e-4
0.572, 1.046e-4
0.573, 1.047e-4
0.574, 1.047e-4
0.575, 1.048e-4
0.576, 1.047e-4
0.577, 1.047e-4
0.578, 1.047e-4
0.579, 1.047e-4
0.580, 1.046e-4
0.581, 1.046e-4
0.582, 1.046e-4
0.583, 1.045e-4
0.584, 1.044e-4
0.585, 1.043e-4
0.586, 1.043e-4
0.587, 1.042e-4
0.588, 1.040e-4
0.589, 1.040e-4
0.590, 1.038e-4
0.591, 1.037e-4
0.592, 1.035e-4
0.593, 1.034e-4
0.594, 1.032e-4
0.595, 1.030e-4
0.596, 1.028e-4
0.597, 1.026e-4
0.598, 1.024e-4
0.599, 1.022e-4
0.600, 1.019e-4
0.601, 1.017e-4
0.602, 1.015e-4
0.603, 1.012e-4
0.604, 1.010e-4
0.605, 1.007e-4
0.606, 1.005e-4
0.607, 1.002e-4
0.608, 9.991e-5
0.609, 9.966e-5
0.610, 9.937e-5
0.611, 9.908e-5
0.612, 9.880e-5
0.613, 9.848e-5
0.614, 9.809e-5
0.615, 9.773e-5
0.616, 9.741e-5
0.617, 9.710e-5
0.618, 9.674e-5
0.619, 9.642e-5
0.620, 9.608e-5
0.621, 9.573e-5
0.622, 9.538e-5
0.623, 9.501e-5
0.624, 9.467e-5
0.625, 9.431e-5
0.626, 9.394e-5
0.627, 9.354e-5
0.628, 9.319e-5
0.629, 9.282e-5
0.630, 9.246e-5
0.631, 9.209e-5
0.632, 9.171e-5
0.633, 9.133e-5
0.634, 9.093e-5
0.635, 9.053e-5
0.636, 9.015e-5
0.637, 8.976e-5
0.638, 8.937e-5
0.639, 8.899e-5
0.640, 8.864e-5
0.641, 8.825e-5
0.642, 8.787e-5
0.643, 8.748e-5
0.644, 8.711e-5
0.645, 8.673e-5
0.646, 8.635e-5
0.647, 8.598e-5
0.648, 8.560e-5
0.649, 8.524e-5
0.650, 8.486e-5
0.651, 8.447e-5
0.652, 8.411e-5
0.653, 8.371e-5
0.654, 8.335e-5
0.655, 8.299e-5
0.656, 8.261e-5
0.657, 8.228e-5
0.658, 8.193e-5
0.659, 8.157e-5
0.660, 8.122e-5
0.661, 8.088e-5
0.662, 8.055e-5
0.663, 8.020e-5
0.664, 7.988e-5
0.665, 7.955e-5
0.666, 7.922e-5
0.667, 7.890e-5
0.668, 7.858e-5
0.669, 7.826e-5
0.670, 7.794e-5
0.671, 7.762e-5
0.672, 7.731e-5
0.673, 7.701e-5
0.674, 7.670e-5
0.675, 7.639e-5
0.676, 7.610e-5
0.677, 7.583e-5
0.678, 7.551e-5
0.679, 7.524e-5
0.680, 7.495e-5
0.681, 7.468e-5
0.682, 7.442e-5
0.683, 7.415e-5
0.684, 7.390e-5
0.685, 7.364e-5
0.686, 7.337e-5
0.687, 7.312e-5
0.688, 7.285e-5
0.689, 7.260e-5
0.690, 7.235e-5
0.691, 7.211e-5
0.692, 7.187e-5
0.693, 7.162e-5
0.694, 7.138e-5
0.695, 7.113e-5
0.696, 7.090e-5
0.697, 7.068e-5
0.698, 7.046e-5
0.699, 7.022e-5
0.700, 7.001e-5
0.701, 6.979e-5
0.702, 6.958e-5
0.703, 6.936e-5
0.704, 6.914e-5
0.705, 6.895e-5
0.706, 6.873e-5
0.707, 6.853e-5
0.708, 6.832e-5
0.709, 6.812e-5
0.710, 6.792e-5
0.711, 6.772e-5
0.712, 6.752e-5
0.713, 6.733e-5
0.714, 6.714e-5
0.715, 6.695e-5
0.716, 6.677e-5
0.717, 6.661e-5
0.718, 6.641e-5
0.719, 6.623e-5
0.720, 6.605e-5
0.721, 6.588e-5
0.722, 6.571e-5
0.723, 6.552e-5
0.724, 6.536e-5
0.725, 6.519e-5
0.726, 6.502e-5
0.727, 6.486e-5
0.728, 6.468e-5
0.729, 6.451e-5
0.730, 6.435e-5
0.731, 6.418e-5
0.732, 6.403e-5
0.733, 6.387e-5
0.734, 6.371e-5
0.735, 6.356e-5
0.736, 6.340e-5
0.737, 6.325e-5
0.738, 6.310e-5
0.739, 6.294e-5
0.740, 6.280e-5
0.741, 6.266e-5
0.742, 6.253e-5
0.743, 6.237e-5
0.744, 6.222e-5
0.745, 6.207e-5
0.746, 6.192e-5
0.747, 6.178e-5
0.748, 6.164e-5
0.749, 6.149e-5
0.750, 6.135e-5
0.751, 6.120e-5
0.752, 6.107e-5
0.753, 6.093e-5
0.754, 6.080e-5
0.755, 6.064e-5
0.756, 6.052e-5
0.757, 6.039e-5
0.758, 6.025e-5
0.759, 6.013e-5
0.760, 5.999e-5
0.761, 5.986e-5
0.762, 5.974e-5
0.763, 5.960e-5
0.764, 5.949e-5
0.765, 5.935e-5
0.766, 5.923e-5
0.767, 5.910e-5
0.768, 5.896e-5
0.769, 5.884e-5
0.770, 5.871e-5
0.771, 5.858e-5
0.772, 5.846e-5
0.773, 5.833e-5
0.774, 5.821e-5
0.775, 5.809e-5
0.776, 5.797e-5
0.777, 5.786e-5
0.778, 5.774e-5
0.779, 5.762e-5
0.780, 5.751e-5
0.781, 5.738e-5
0.782, 5.727e-5
0.783, 5.715e-5
0.784, 5.702e-5
0.785, 5.690e-5
0.786, 5.679e-5
0.787, 5.667e-5
0.788, 5.656e-5
0.789, 5.645e-5
0.790, 5.633e-5
0.791, 5.622e-5
0.792, 5.612e-5
0.793, 5.603e-5
0.794, 5.592e-5
0.795, 5.580e-5
0.796, 5.570e-5
0.797, 5.560e-5
0.798, 5.549e-5
0.799, 5.538e-5
0.800, 5.525e-5
0.801, 5.515e-5
0.802, 5.504e-5
0.803, 5.492e-5
0.804, 5.482e-5
0.805, 5.471e-5
0.806, 5.460e-5
0.807, 5.451e-5
0.808, 5.440e-5
0.809, 5.430e-5
0.810, 5.420e-5
0.811, 5.410e-5
0.812, 5.402e-5
0.813, 5.392e-5
0.814, 5.382e-5
0.815, 5.373e-5
0.816, 5.364e-5
0.817, 5.355e-5
0.818, 5.344e-5
0.819, 5.329e-5
0.820, 5.322e-5
0.821, 5.312e-5
0.822, 5.302e-5
0.823, 5.292e-5
0.824, 5.283e-5
0.825, 5.274e-5
0.826, 5.265e-5
0.827, 5.256e-5
0.828, 5.247e-5
0.829, 5.239e-5
0.830, 5.228e-5
0.831, 5.220e-5
0.832, 5.211e-5
0.833, 5.203e-5
0.834, 5.195e-5
0.835, 5.186e-5
0.836, 5.178e-5
0.837, 5.171e-5
0.838, 5.160e-5
0.839, 5.151e-5
0.840, 5.142e-5
0.841, 5.133e-5
0.842, 5.125e-5
0.843, 5.115e-5
0.844, 5.107e-5
0.845, 5.100e-5
0.846, 5.090e-5
0.847, 5.082e-5
0.848, 5.074e-5
0.849, 5.067e-5
0.850, 5.058e-5
0.851, 5.049e-5
0.852, 5.043e-5
0.853, 5.035e-5
0.854, 5.026e-5
0.855, 5.019e-5
0.856, 5.010e-5
0.857, 5.002e-5
0.858, 4.995e-5
0.859, 4.987e-5
0.860, 4.979e-5
0.861, 4.971e-5
0.862, 4.963e-5
0.863, 4.955e-5
0.864, 4.948e-5
0.865, 4.940e-5
0.866, 4.933e-5
0.867, 4.925e-5
0.868, 4.918e-5
0.869, 4.912e-5
0.870, 4.904e-5
0.871, 4.896e-5
0.872, 4.890e-5
0.873, 4.883e-5
0.874, 4.876e-5
0.875, 4.868e-5
0.876, 4.862e-5
0.877, 4.855e-5
0.878, 4.848e-5
0.879, 4.841e-5
0.880, 4.833e-5
0.881, 4.827e-5
0.882, 4.820e-5
0.883, 4.810e-5
0.884, 4.806e-5
0.885, 4.799e-5
0.886, 4.791e-5
0.887, 4.786e-5
0.888, 4.779e-5
0.889, 4.773e-5
0.890, 4.767e-5
0.891, 4.759e-5
0.892, 4.755e-5
0.893, 4.748e-5
0.894, 4.741e-5
0.895, 4.735e-5
0.896, 4.730e-5
0.897, 4.723e-5
0.898, 4.715e-5
0.899, 4.709e-5
0.900, 4.703e-5
0.901, 4.696e-5
0.902, 4.691e-5
0.903, 4.684e-5
0.904, 4.678e-5
0.905, 4.672e-5
0.906, 4.666e-5
0.907, 4.660e-5
0.908, 4.654e-5
0.909, 4.648e-5
0.910, 4.642e-5
0.911, 4.637e-5
0.912, 4.633e-5
0.913, 4.626e-5
0.914, 4.620e-5
0.915, 4.614e-5
0.916, 4.609e-5
0.917, 4.604e-5
0.918, 4.595e-5
0.919, 4.591e-5
0.920, 4.586e-5
0.921, 4.581e-5
0.922, 4.576e-5
0.923, 4.569e-5
0.924, 4.565e-5
0.925, 4.559e-5
0.926, 4.553e-5
0.927, 4.549e-5
0.928, 4.542e-5
0.929, 4.539e-5
0.930, 4.534e-5
0.931, 4.528e-5
0.932, 4.524e-5
0.933, 4.518e-5
0.934, 4.512e-5
0.935, 4.508e-5
0.936, 4.502e-5
0.937, 4.498e-5
0.938, 4.492e-5
0.939, 4.487e-5
0.940, 4.482e-5
0.941, 4.478e-5
0.942, 4.473e-5
0.943, 4.468e-5
0.944, 4.463e-5
0.945, 4.459e-5
0.946, 4.454e-5
0.947, 4.451e-5
0.948, 4.445e-5
0.949, 4.441e-5
0.950, 4.437e-5
0.951, 4.432e-5
0.952, 4.427e-5
0.953, 4.423e-5
0.954, 4.419e-5
0.955, 4.414e-5
0.956, 4.409e-5
0.957, 4.406e-5
0.958, 4.400e-5
0.959, 4.396e-5
0.960, 4.390e-5
0.961, 4.387e-5
0.962, 4.383e-5
0.963, 4.378e-5
0.964, 4.375e-5
0.965, 4.371e-5
0.966, 4.366e-5
0.967, 4.363e-5
0.968, 4.358e-5
0.969, 4.355e-5
0.970, 4.351e-5
0.971, 4.346e-5
0.972, 4.343e-5
0.973, 4.338e-5
0.974, 4.335e-5
0.975, 4.331e-5
0.976, 4.327e-5
0.977, 4.325e-5
0.978, 4.320e-5
0.979, 4.316e-5
0.980, 4.313e-5
0.981, 4.310e-5
0.982, 4.306e-5
0.983, 4.302e-5
0.984, 4.299e-5
0.985, 4.295e-5
0.986, 4.291e-5
0.987, 4.288e-5
0.988, 4.285e-5
0.989, 4.282e-5
0.990, 4.278e-5
0.991, 4.275e-5
0.992, 4.273e-5
0.993, 4.270e-5
0.994, 4.267e-5
0.995, 4.264e-5
0.996, 4.262e-5
0.997, 4.260e-5
0.998, 4.257e-5
0.999, 4.254e-5
1.000, 4.175e-5
0.999, 4.115e-5
0.998, 4.087e-5
0.997, 4.062e-5
0.996, 4.041e-5
0.995, 4.022e-5
0.994, 4.005e-5
0.993, 3.989e-5
0.992, 3.973e-5
0.991, 3.958e-5
0.990, 3.944e-5
0.989, 3.931e-5
0.988, 3.918e-5
0.987, 3.905e-5
0.986, 3.894e-5
0.985, 3.882e-5
0.984, 3.870e-5
0.983, 3.859e-5
0.982, 3.848e-5
0.981, 3.837e-5
0.980, 3.826e-5
0.979, 3.816e-5
0.978, 3.807e-5
0.977, 3.796e-5
0.976, 3.786e-5
0.975, 3.777e-5
0.974, 3.767e-5
0.973, 3.759e-5
0.972, 3.748e-5
0.971, 3.739e-5
0.970, 3.731e-5
0.969, 3.722e-5
0.968, 3.713e-5
0.967, 3.704e-5
0.966, 3.697e-5
0.965, 3.688e-5
0.964, 3.680e-5
0.963, 3.673e-5
0.962, 3.665e-5
0.961, 3.657e-5
0.960, 3.651e-5
0.959, 3.642e-5
0.958, 3.635e-5
0.957, 3.626e-5
0.956, 3.617e-5
0.955, 3.610e-5
0.954, 3.603e-5
0.953, 3.595e-5
0.952, 3.587e-5
0.951, 3.580e-5
0.950, 3.573e-5
0.949, 3.567e-5
0.948, 3.558e-5
0.947, 3.551e-5
0.946, 3.546e-5
0.945, 3.539e-5
0.944, 3.532e-5
0.943, 3.525e-5
0.942, 3.518e-5
0.941, 3.512e-5
0.940, 3.505e-5
0.939, 3.499e-5
0.938, 3.493e-5
0.937, 3.486e-5
0.936, 3.480e-5
0.935, 3.475e-5
0.934, 3.469e-5
0.933, 3.462e-5
0.932, 3.455e-5
0.931, 3.448e-5
0.930, 3.443e-5
0.929, 3.435e-5
0.928, 3.430e-5
0.927, 3.423e-5
0.926, 3.418e-5
0.925, 3.413e-5
0.924, 3.406e-5
0.923, 3.401e-5
0.922, 3.394e-5
0.921, 3.389e-5
0.920, 3.384e-5
0.919, 3.379e-5
0.918, 3.374e-5
0.917, 3.368e-5
0.916, 3.363e-5
0.915, 3.357e-5
0.914, 3.353e-5
0.913, 3.348e-5
0.912, 3.341e-5
0.911, 3.335e-5
0.910, 3.329e-5
0.909, 3.325e-5
0.908, 3.318e-5
0.907, 3.313e-5
0.906, 3.308e-5
0.905, 3.303e-5
0.904, 3.297e-5
0.903, 3.293e-5
0.902, 3.288e-5
0.901, 3.283e-5
0.900, 3.278e-5
0.899, 3.274e-5
0.898, 3.270e-5
0.897, 3.264e-5
0.896, 3.258e-5
0.895, 3.254e-5
0.894, 3.250e-5
0.893, 3.245e-5
0.892, 3.240e-5
0.891, 3.234e-5
0.890, 3.229e-5
0.889, 3.225e-5
0.888, 3.220e-5
0.887, 3.214e-5
0.886, 3.210e-5
0.885, 3.205e-5
0.884, 3.201e-5
0.883, 3.197e-5
0.882, 3.192e-5
0.881, 3.188e-5
0.880, 3.183e-5
0.879, 3.180e-5
0.878, 3.176e-5
0.877, 3.171e-5
0.876, 3.168e-5
0.875, 3.162e-5
0.874, 3.159e-5
0.873, 3.154e-5
0.872, 3.148e-5
0.871, 3.144e-5
0.870, 3.139e-5
0.869, 3.135e-5
0.868, 3.130e-5
0.867, 3.125e-5
0.866, 3.123e-5
0.865, 3.117e-5
0.864, 3.114e-5
0.863, 3.110e-5
0.862, 3.105e-5
0.861, 3.102e-5
0.860, 3.097e-5
0.859, 3.093e-5
0.858, 3.091e-5
0.857, 3.085e-5
0.856, 3.082e-5
0.855, 3.078e-5
0.854, 3.074e-5
0.853, 3.070e-5
0.852, 3.064e-5
0.851, 3.061e-5
0.850, 3.057e-5
0.849, 3.053e-5
0.848, 3.049e-5
0.847, 3.044e-5
0.846, 3.040e-5
0.845, 3.035e-5
0.844, 3.033e-5
0.843, 3.029e-5
0.842, 3.025e-5
0.841, 3.021e-5
0.840, 3.017e-5
0.839, 3.014e-5
0.838, 3.010e-5
0.837, 3.006e-5
0.836, 3.002e-5
0.835, 2.999e-5
0.834, 2.995e-5
0.833, 2.991e-5
0.832, 2.988e-5
0.831, 2.983e-5
0.830, 2.979e-5
0.829, 2.977e-5
0.828, 2.972e-5
0.827, 2.967e-5
0.826, 2.965e-5
0.825, 2.961e-5
0.824, 2.957e-5
0.823, 2.954e-5
0.822, 2.951e-5
0.821, 2.948e-5
0.820, 2.947e-5
0.819, 2.942e-5
0.818, 2.938e-5
0.817, 2.933e-5
0.816, 2.929e-5
0.815, 2.925e-5
0.814, 2.921e-5
0.813, 2.917e-5
0.812, 2.913e-5
0.811, 2.910e-5
0.810, 2.907e-5
0.809, 2.903e-5
0.808, 2.899e-5
0.807, 2.897e-5
0.806, 2.893e-5
0.805, 2.889e-5
0.804, 2.885e-5
0.803, 2.882e-5
0.802, 2.878e-5
0.801, 2.875e-5
0.800, 2.871e-5
0.799, 2.867e-5
0.798, 2.863e-5
0.797, 2.859e-5
0.796, 2.855e-5
0.795, 2.852e-5
0.794, 2.847e-5
0.793, 2.843e-5
0.792, 2.840e-5
0.791, 2.837e-5
0.790, 2.833e-5
0.789, 2.830e-5
0.788, 2.826e-5
0.787, 2.822e-5
0.786, 2.820e-5
0.785, 2.815e-5
0.784, 2.812e-5
0.783, 2.808e-5
0.782, 2.804e-5
0.781, 2.802e-5
0.780, 2.796e-5
0.779, 2.793e-5
0.778, 2.790e-5
0.777, 2.785e-5
0.776, 2.781e-5
0.775, 2.778e-5
0.774, 2.774e-5
0.773, 2.770e-5
0.772, 2.766e-5
0.771, 2.763e-5
0.770, 2.760e-5
0.769, 2.756e-5
0.768, 2.753e-5
0.767, 2.749e-5
0.766, 2.745e-5
0.765, 2.742e-5
0.764, 2.737e-5
0.763, 2.734e-5
0.762, 2.729e-5
0.761, 2.725e-5
0.760, 2.720e-5
0.759, 2.716e-5
0.758, 2.713e-5
0.757, 2.709e-5
0.756, 2.706e-5
0.755, 2.703e-5
0.754, 2.699e-5
0.753, 2.695e-5
0.752, 2.691e-5
0.751, 2.688e-5
0.750, 2.686e-5
0.749, 2.683e-5
0.748, 2.679e-5
0.747, 2.675e-5
0.746, 2.671e-5
0.745, 2.667e-5
0.744, 2.662e-5
0.743, 2.657e-5
0.742, 2.652e-5
0.741, 2.649e-5
0.740, 2.644e-5
0.739, 2.640e-5
0.738, 2.637e-5
0.737, 2.632e-5
0.736, 2.629e-5
0.735, 2.625e-5
0.734, 2.622e-5
0.733, 2.619e-5
0.732, 2.615e-5
0.731, 2.612e-5
0.730, 2.611e-5
0.729, 2.606e-5
0.728, 2.602e-5
0.727, 2.597e-5
0.726, 2.594e-5
0.725, 2.589e-5
0.724, 2.584e-5
0.723, 2.580e-5
0.722, 2.575e-5
0.721, 2.572e-5
0.720, 2.567e-5
0.719, 2.563e-5
0.718, 2.560e-5
0.717, 2.553e-5
0.716, 2.551e-5
0.715, 2.548e-5
0.714, 2.545e-5
0.713, 2.541e-5
0.712, 2.536e-5
0.711, 2.535e-5
0.710, 2.531e-5
0.709, 2.528e-5
0.708, 2.524e-5
0.707, 2.520e-5
0.706, 2.517e-5
0.705, 2.512e-5
0.704, 2.509e-5
0.703, 2.504e-5
0.702, 2.499e-5
0.701, 2.496e-5
0.700, 2.491e-5
0.699, 2.487e-5
0.698, 2.484e-5
0.697, 2.479e-5
0.696, 2.476e-5
0.695, 2.472e-5
0.694, 2.469e-5
0.693, 2.466e-5
0.692, 2.460e-5
0.691, 2.457e-5
0.690, 2.454e-5
0.689, 2.450e-5
0.688, 2.447e-5
0.687, 2.443e-5
0.686, 2.440e-5
0.685, 2.436e-5
0.684, 2.431e-5
0.683, 2.427e-5
0.682, 2.422e-5
0.681, 2.419e-5
0.680, 2.414e-5
0.679, 2.411e-5
0.678, 2.407e-5
0.677, 2.403e-5
0.676, 2.399e-5
0.675, 2.395e-5
0.674, 2.392e-5
0.673, 2.388e-5
0.672, 2.384e-5
0.671, 2.381e-5
0.670, 2.376e-5
0.669, 2.373e-5
0.668, 2.369e-5
0.667, 2.364e-5
0.666, 2.361e-5
0.665, 2.356e-5
0.664, 2.352e-5
0.663, 2.348e-5
0.662, 2.343e-5
0.661, 2.340e-5
0.660, 2.334e-5
0.659, 2.330e-5
0.658, 2.326e-5
0.657, 2.321e-5
0.656, 2.317e-5
0.655, 2.312e-5
0.654, 2.309e-5
0.653, 2.307e-5
0.652, 2.301e-5
0.651, 2.297e-5
0.650, 2.292e-5
0.649, 2.288e-5
0.648, 2.283e-5
0.647, 2.279e-5
0.646, 2.275e-5
0.645, 2.271e-5
0.644, 2.265e-5
0.643, 2.260e-5
0.642, 2.256e-5
0.641, 2.251e-5
0.640, 2.245e-5
0.639, 2.241e-5
0.638, 2.237e-5
0.637, 2.232e-5
0.636, 2.227e-5
0.635, 2.222e-5
0.634, 2.218e-5
0.633, 2.213e-5
0.632, 2.207e-5
0.631, 2.203e-5
0.630, 2.197e-5
0.629, 2.193e-5
0.628, 2.188e-5
0.627, 2.182e-5
0.626, 2.177e-5
0.625, 2.171e-5
0.624, 2.166e-5
0.623, 2.160e-5
0.622, 2.153e-5
0.621, 2.148e-5
0.620, 2.142e-5
0.619, 2.136e-5
0.618, 2.131e-5
0.617, 2.124e-5
0.616, 2.118e-5
0.615, 2.114e-5
0.614, 2.107e-5
0.613, 2.101e-5
0.612, 2.092e-5
0.611, 2.086e-5
0.610, 2.080e-5
0.609, 2.072e-5
0.608, 2.064e-5
0.607, 2.056e-5
0.606, 2.049e-5
0.605, 2.042e-5
0.604, 2.033e-5
0.603, 2.025e-5
0.602, 2.017e-5
0.601, 2.008e-5
0.600, 1.999e-5
0.599, 1.990e-5
0.598, 1.980e-5
0.597, 1.971e-5
0.596, 1.961e-5
0.595, 1.951e-5
0.594, 1.941e-5
0.593, 1.930e-5
0.592, 1.918e-5
0.591, 1.908e-5
0.590, 1.896e-5
0.589, 1.883e-5
0.588, 1.871e-5
0.587, 1.858e-5
0.586, 1.847e-5
0.585, 1.833e-5
0.584, 1.819e-5
0.583, 1.806e-5
0.582, 1.791e-5
0.581, 1.778e-5
0.580, 1.761e-5
0.579, 1.746e-5
0.578, 1.731e-5
0.577, 1.713e-5
0.576, 1.701e-5
0.575, 1.680e-5
0.574, 1.663e-5
0.573, 1.645e-5
0.572, 1.623e-5
0.571, 1.606e-5
0.570, 1.586e-5
0.569, 1.564e-5
0.568, 1.541e-5
0.567, 1.518e-5
0.566, 1.497e-5
0.565, 1.474e-5
0.564, 1.448e-5
0.563, 1.424e-5
0.562, 1.398e-5
0.561, 1.373e-5
0.560, 1.345e-5
0.559, 1.316e-5
0.558, 1.287e-5
0.557, 1.257e-5
0.556, 1.228e-5
0.555, 1.195e-5
0.554, 1.164e-5
0.553, 1.130e-5
0.552, 1.095e-5
0.551, 1.061e-5
0.550, 1.027e-5
0.549, 9.881e-6
0.548, 9.469e-6
0.547, 9.091e-6
0.546, 8.685e-6
0.545, 8.240e-6
0.544, 7.834e-6
0.543, 7.344e-6
0.542, 6.897e-6
0.541, 6.453e-6
0.540, 5.907e-6
0.539, 5.441e-6
0.538, 4.814e-6
0.537, 4.287e-6
0.536, 3.813e-6
0.535, 3.175e-6
0.534, 2.655e-6
0.533, 2.066e-6
0.532, 1.451e-6
0.531, 8.457e-7
0.530, 1.702e-7
0.529, -4.628e-7
0.528, -1.165e-6
0.527, -1.893e-6
0.526, -2.553e-6
0.525, -3.140e-6
0.524, -3.938e-6
0.523, -4.735e-6
0.522, -5.508e-6
0.521, -6.297e-6
0.520, -7.136e-6
0.519, -8.052e-6
0.518, -8.829e-6
0.517, -9.623e-6
0.516, -1.056e-5
0.515, -1.150e-5
0.514, -1.239e-5
0.513, -1.332e-5
0.512, -1.443e-5
0.511, -1.532e-5
0.510, -1.637e-5
0.509, -1.726e-5
0.508, -1.832e-5
0.507, -1.934e-5
0.506, -2.030e-5
0.505, -2.148e-5
0.504, -2.240e-5
0.503, -2.359e-5
0.502, -2.465e-5
0.501, -2.563e-5
0.500, -2.684e-5
0.499, -2.762e-5
0.498, -2.896e-5
0.497, -3.010e-5
0.496, -3.115e-5
0.495, -3.249e-5
0.494, -3.360e-5
0.493, -3.476e-5
0.492, -3.597e-5
0.491, -3.721e-5
0.490, -3.843e-5
0.489, -3.953e-5
0.488, -4.079e-5
0.487, -4.215e-5
0.486, -4.337e-5
0.485, -4.443e-5
0.484, -4.553e-5
0.483, -4.671e-5
0.482, -4.772e-5
0.481, -4.889e-5
0.480, -4.988e-5
0.479, -5.105e-5
0.478, -5.204e-5
0.477, -5.302e-5
0.476, -5.399e-5
0.475, -5.515e-5
0.474, -5.586e-5
0.473, -5.685e-5
0.472, -5.769e-5
0.471, -5.865e-5
0.470, -5.965e-5
0.469, -6.020e-5
0.468, -6.123e-5
0.467, -6.184e-5
0.466, -6.253e-5
0.465, -6.333e-5
0.464, -6.383e-5
0.463, -6.465e-5
0.462, -6.512e-5
0.461, -6.547e-5
0.460, -6.619e-5
0.459, -6.651e-5
0.458, -6.707e-5
0.457, -6.735e-5
0.456, -6.769e-5
0.455, -6.816e-5
0.454, -6.836e-5
0.453, -6.863e-5
0.452, -6.887e-5
0.451, -6.906e-5
0.450, -6.928e-5
0.449, -6.935e-5
0.448, -6.927e-5
0.447, -6.943e-5
0.446, -6.946e-5
0.445, -6.951e-5
0.444, -6.953e-5
0.443, -6.945e-5
0.442, -6.943e-5
0.441, -6.922e-5
0.440, -6.921e-5
0.439, -6.903e-5
0.438, -6.888e-5
0.437, -6.853e-5
0.436, -6.841e-5
0.435, -6.845e-5
0.434, -6.799e-5
0.433, -6.769e-5
0.432, -6.740e-5
0.431, -6.708e-5
0.430, -6.680e-5
0.429, -6.637e-5
0.428, -6.608e-5
0.427, -6.579e-5
0.426, -6.532e-5
0.425, -6.497e-5
0.424, -6.450e-5
0.423, -6.408e-5
0.422, -6.364e-5
0.421, -6.320e-5
0.420, -6.283e-5
0.419, -6.238e-5
0.418, -6.196e-5
0.417, -6.150e-5
0.416, -6.103e-5
0.415, -6.060e-5
0.414, -6.013e-5
0.413, -5.967e-5
0.412, -5.922e-5
0.411, -5.875e-5
0.410, -5.804e-5
0.409, -5.763e-5
0.408, -5.725e-5
0.407, -5.683e-5
0.406, -5.637e-5
0.405, -5.597e-5
0.404, -5.549e-5
0.403, -5.503e-5
0.402, -5.458e-5
0.401, -5.415e-5
0.400, -5.372e-5
0.399, -5.327e-5
0.398, -5.283e-5
0.397, -5.234e-5
0.396, -5.194e-5
0.395, -5.154e-5
0.394, -5.109e-5
0.393, -5.069e-5
0.392, -5.027e-5
0.391, -4.985e-5
0.390, -4.946e-5
0.389, -4.903e-5
0.388, -4.866e-5
0.387, -4.825e-5
0.386, -4.785e-5
0.385, -4.749e-5
0.384, -4.714e-5
0.383, -4.674e-5
0.382, -4.634e-5
0.381, -4.596e-5
0.380, -4.562e-5
0.379, -4.524e-5
0.378, -4.488e-5
0.377, -4.453e-5
0.376, -4.418e-5
0.375, -4.385e-5
0.374, -4.350e-5
0.373, -4.316e-5
0.372, -4.283e-5
0.371, -4.247e-5
0.370, -4.218e-5
0.369, -4.185e-5
0.368, -4.154e-5
0.367, -4.123e-5
0.366, -4.093e-5
0.365, -4.063e-5
0.364, -4.033e-5
0.363, -4.003e-5
0.362, -3.974e-5
0.361, -3.945e-5
0.360, -3.918e-5
0.359, -3.889e-5
0.358, -3.861e-5
0.357, -3.834e-5
0.356, -3.807e-5
0.355, -3.782e-5
0.354, -3.754e-5
0.353, -3.729e-5
0.352, -3.704e-5
0.351, -3.679e-5
0.350, -3.654e-5
0.349, -3.629e-5
0.348, -3.606e-5
0.347, -3.582e-5
0.346, -3.556e-5
0.345, -3.535e-5
0.344, -3.513e-5
0.343, -3.491e-5
0.342, -3.468e-5
0.341, -3.446e-5
0.340, -3.425e-5
0.339, -3.403e-5
0.338, -3.382e-5
0.337, -3.361e-5
0.336, -3.340e-5
0.335, -3.321e-5
0.334, -3.300e-5
0.333, -3.282e-5
0.332, -3.262e-5
0.331, -3.242e-5
0.330, -3.223e-5
0.329, -3.204e-5
0.328, -3.186e-5
0.327, -3.167e-5
0.326, -3.148e-5
0.325, -3.131e-5
0.324, -3.113e-5
0.323, -3.095e-5
0.322, -3.078e-5
0.321, -3.061e-5
0.320, -3.043e-5
0.319, -3.027e-5
0.318, -3.010e-5
0.317, -2.994e-5
0.316, -2.978e-5
0.315, -2.963e-5
0.314, -2.946e-5
0.313, -2.931e-5
0.312, -2.916e-5
0.311, -2.901e-5
0.310, -2.886e-5
0.309, -2.871e-5
0.308, -2.857e-5
0.307, -2.842e-5
0.306, -2.827e-5
0.305, -2.813e-5
0.304, -2.799e-5
0.303, -2.785e-5
0.302, -2.772e-5
0.301, -2.757e-5
0.300, -2.745e-5
0.299, -2.731e-5
0.298, -2.717e-5
0.297, -2.705e-5
0.296, -2.692e-5
0.295, -2.679e-5
0.294, -2.666e-5
0.293, -2.653e-5
0.292, -2.641e-5
0.291, -2.628e-5
0.290, -2.617e-5
0.289, -2.605e-5
0.288, -2.593e-5
0.287, -2.581e-5
0.286, -2.569e-5
0.285, -2.558e-5
0.284, -2.547e-5
0.283, -2.535e-5
0.282, -2.525e-5
0.281, -2.513e-5
0.280, -2.503e-5
0.279, -2.492e-5
0.278, -2.480e-5
0.277, -2.470e-5
0.276, -2.459e-5
0.275, -2.449e-5
0.274, -2.438e-5
0.273, -2.428e-5
0.272, -2.418e-5
0.271, -2.407e-5
0.270, -2.398e-5
0.269, -2.387e-5
0.268, -2.378e-5
0.267, -2.368e-5
0.266, -2.358e-5
0.265, -2.349e-5
0.264, -2.339e-5
0.263, -2.329e-5
0.262, -2.320e-5
0.261, -2.311e-5
0.260, -2.302e-5
0.259, -2.293e-5
0.258, -2.284e-5
0.257, -2.275e-5
0.256, -2.265e-5
0.255, -2.257e-5
0.254, -2.248e-5
0.253, -2.239e-5
0.252, -2.231e-5
0.251, -2.223e-5
0.250, -2.214e-5
0.249, -2.206e-5
0.248, -2.198e-5
0.247, -2.190e-5
0.246, -2.181e-5
0.245, -2.174e-5
0.244, -2.165e-5
0.243, -2.157e-5
0.242, -2.150e-5
0.241, -2.142e-5
0.240, -2.135e-5
0.239, -2.127e-5
0.238, -2.119e-5
0.237, -2.111e-5
0.236, -2.104e-5
0.235, -2.097e-5
0.234, -2.089e-5
0.233, -2.082e-5
0.232, -2.075e-5
0.231, -2.068e-5
0.230, -2.061e-5
0.229, -2.053e-5
0.228, -2.046e-5
0.227, -2.039e-5
0.226, -2.032e-5
0.225, -2.026e-5
0.224, -2.019e-5
0.223, -2.012e-5
0.222, -2.005e-5
0.221, -1.998e-5
0.220, -1.993e-5
0.219, -1.985e-5
0.218, -1.978e-5
0.217, -1.972e-5
0.216, -1.966e-5
0.215, -1.961e-5
0.214, -1.953e-5
0.213, -1.947e-5
0.212, -1.941e-5
0.211, -1.935e-5
0.210, -1.929e-5
0.209, -1.922e-5
0.208, -1.917e-5
0.207, -1.911e-5
0.206, -1.904e-5
0.205, -1.897e-5
0.204, -1.893e-5
0.203, -1.887e-5
0.202, -1.881e-5
0.201, -1.875e-5
0.200, -1.870e-5
0.199, -1.864e-5
0.198, -1.858e-5
0.197, -1.852e-5
0.196, -1.847e-5
0.195, -1.842e-5
0.194, -1.836e-5
0.193, -1.831e-5
0.192, -1.825e-5
0.191, -1.819e-5
0.190, -1.814e-5
0.189, -1.809e-5
0.188, -1.804e-5
0.187, -1.799e-5
0.186, -1.793e-5
0.185, -1.788e-5
0.184, -1.783e-5
0.183, -1.778e-5
0.182, -1.773e-5
0.181, -1.767e-5
0.180, -1.763e-5
0.179, -1.758e-5
0.178, -1.753e-5
0.177, -1.748e-5
0.176, -1.743e-5
0.175, -1.739e-5
0.174, -1.733e-5
0.173, -1.729e-5
0.172, -1.724e-5
0.171, -1.719e-5
0.170, -1.715e-5
0.169, -1.710e-5
0.168, -1.705e-5
0.167, -1.700e-5
0.166, -1.696e-5
0.165, -1.691e-5
0.164, -1.687e-5
0.163, -1.682e-5
0.162, -1.678e-5
0.161, -1.673e-5
0.160, -1.669e-5
0.159, -1.665e-5
0.158, -1.660e-5
0.157, -1.656e-5
0.156, -1.651e-5
0.155, -1.647e-5
0.154, -1.643e-5
0.153, -1.639e-5
0.152, -1.635e-5
0.151, -1.630e-5
0.150, -1.626e-5
0.149, -1.622e-5
0.148, -1.618e-5
0.147, -1.614e-5
0.146, -1.609e-5
0.145, -1.606e-5
0.144, -1.602e-5
0.143, -1.598e-5
0.142, -1.594e-5
0.141, -1.589e-5
0.140, -1.586e-5
0.139, -1.582e-5
0.138, -1.578e-5
0.137, -1.574e-5
0.136, -1.570e-5
0.135, -1.567e-5
0.134, -1.562e-5
0.133, -1.559e-5
0.132, -1.555e-5
0.131, -1.551e-5
0.130, -1.548e-5
0.129, -1.544e-5
0.128, -1.541e-5
0.127, -1.537e-5
0.126, -1.533e-5
0.125, -1.529e-5
0.124, -1.526e-5
0.123, -1.522e-5
0.122, -1.519e-5
0.121, -1.516e-5
0.120, -1.512e-5
0.119, -1.509e-5
0.118, -1.505e-5
0.117, -1.502e-5
0.116, -1.498e-5
0.115, -1.495e-5
0.114, -1.492e-5
0.113, -1.488e-5
0.112, -1.485e-5
0.111, -1.482e-5
0.110, -1.479e-5
0.109, -1.475e-5
0.108, -1.472e-5
0.107, -1.469e-5
0.106, -1.465e-5
0.105, -1.463e-5
0.104, -1.460e-5
0.103, -1.457e-5
0.102, -1.453e-5
0.101, -1.450e-5
0.100, -1.448e-5
0.099, -1.445e-5
0.098, -1.441e-5
0.097, -1.438e-5
0.096, -1.435e-5
0.095, -1.433e-5
0.094, -1.429e-5
0.093, -1.427e-5
0.092, -1.424e-5
0.091, -1.421e-5
0.090, -1.418e-5
0.089, -1.415e-5
0.088, -1.412e-5
0.087, -1.410e-5
0.086, -1.406e-5
0.085, -1.404e-5
0.084, -1.401e-5
0.083, -1.399e-5
0.082, -1.396e-5
0.081, -1.393e-5
0.080, -1.391e-5
0.079, -1.388e-5
0.078, -1.385e-5
0.077, -1.383e-5
0.076, -1.380e-5
0.075, -1.377e-5
0.074, -1.374e-5
0.073, -1.372e-5
0.072, -1.370e-5
0.071, -1.367e-5
0.070, -1.365e-5
0.069, -1.362e-5
0.068, -1.360e-5
0.067, -1.357e-5
0.066, -1.354e-5
0.065, -1.352e-5
0.064, -1.349e-5
0.063, -1.347e-5
0.062, -1.345e-5
0.061, -1.342e-5
0.060, -1.340e-5
0.059, -1.337e-5
0.058, -1.335e-5
0.057, -1.332e-5
0.056, -1.330e-5
0.055, -1.327e-5
0.054, -1.325e-5
0.053, -1.322e-5
0.052, -1.320e-5
0.051, -1.317e-5
0.050, -1.315e-5
0.049, -1.312e-5
0.048, -1.310e-5
0.047, -1.308e-5
0.046, -1.305e-5
0.045, -1.303e-5
0.044, -1.301e-5
0.043, -1.298e-5
0.042, -1.295e-5
0.041, -1.293e-5
0.040, -1.291e-5
0.039, -1.288e-5
0.038, -1.285e-5
0.037, -1.283e-5
0.036, -1.281e-5
0.035, -1.278e-5
0.034, -1.276e-5
0.033, -1.273e-5
0.032, -1.271e-5
0.031, -1.268e-5
0.030, -1.266e-5
0.029, -1.263e-5
0.028, -1.261e-5
0.027, -1.259e-5
0.026, -1.257e-5
0.025, -1.254e-5
0.024, -1.252e-5
0.023, -1.250e-5
0.022, -1.247e-5
0.021, -1.244e-5
0.020, -1.242e-5
0.019, -1.240e-5
0.018, -1.237e-5
0.017, -1.235e-5
0.016, -1.232e-5
0.015, -1.231e-5
0.014, -1.228e-5
0.013, -1.225e-5
0.012, -1.224e-5
0.011, -1.221e-5
0.010, -1.219e-5
0.009, -1.216e-5
0.008, -1.215e-5
0.007, -1.212e-5
0.006, -1.209e-5
0.005, -1.207e-5
0.004, -1.205e-5
0.003, -1.203e-5
0.002, -1.200e-5
0.001, -1.198e-5
