May 7, 2026   14:47:38
Cyclic Voltammetry
File: mecn_ar_0.1mtbapf6_3mmfc_1mmfe-tpypy2me_-1.7_to_1v_25mvs
Data Source:  Experiment
Instrument Model:  CHI660D
Header: 
Note: 

Init E (V) = 0
High E (V) = 1
Low E (V) = -1.7
Final E (V) = 0
Init P/N = N
Scan Rate (V/s) = 0.025
Segment = 3
Sample Interval (V) = 0.001
Quiet Time (sec) = 2
Sensitivity (A/V) = 1e-4
Comp R (ohm) = 131.5

Results:

Channel 1:
Segment 1:
Ep = -1.016V
ip = -1.914e-5A
Ah = -7.585e-5C

Segment 2:
Ep = -0.896V
ip = 1.904e-5A
Ah = 7.689e-5C

Ep = 0.497V
ip = 6.084e-5A
Ah = 1.539e-4C

Segment 3:
Ep = 0.436V
ip = -6.306e-5A
Ah = -1.592e-4C

Potential/V, Current/A

0.000, -1.715e-6
-0.001, -1.749e-6
-0.002, -1.755e-6
-0.003, -1.757e-6
-0.004, -1.759e-6
-0.005, -1.756e-6
-0.006, -1.750e-6
-0.007, -1.750e-6
-0.008, -1.746e-6
-0.009, -1.741e-6
-0.010, -1.738e-6
-0.011, -1.732e-6
-0.012, -1.727e-6
-0.013, -1.722e-6
-0.014, -1.719e-6
-0.015, -1.714e-6
-0.016, -1.712e-6
-0.017, -1.707e-6
-0.018, -1.703e-6
-0.019, -1.697e-6
-0.020, -1.697e-6
-0.021, -1.692e-6
-0.022, -1.687e-6
-0.023, -1.684e-6
-0.024, -1.682e-6
-0.025, -1.681e-6
-0.026, -1.676e-6
-0.027, -1.671e-6
-0.028, -1.671e-6
-0.029, -1.666e-6
-0.030, -1.663e-6
-0.031, -1.661e-6
-0.032, -1.658e-6
-0.033, -1.655e-6
-0.034, -1.652e-6
-0.035, -1.649e-6
-0.036, -1.647e-6
-0.037, -1.645e-6
-0.038, -1.636e-6
-0.039, -1.640e-6
-0.040, -1.638e-6
-0.041, -1.636e-6
-0.042, -1.634e-6
-0.043, -1.630e-6
-0.044, -1.629e-6
-0.045, -1.629e-6
-0.046, -1.627e-6
-0.047, -1.624e-6
-0.048, -1.625e-6
-0.049, -1.622e-6
-0.050, -1.621e-6
-0.051, -1.617e-6
-0.052, -1.620e-6
-0.053, -1.617e-6
-0.054, -1.617e-6
-0.055, -1.617e-6
-0.056, -1.618e-6
-0.057, -1.613e-6
-0.058, -1.613e-6
-0.059, -1.611e-6
-0.060, -1.613e-6
-0.061, -1.612e-6
-0.062, -1.611e-6
-0.063, -1.611e-6
-0.064, -1.607e-6
-0.065, -1.609e-6
-0.066, -1.610e-6
-0.067, -1.608e-6
-0.068, -1.611e-6
-0.069, -1.611e-6
-0.070, -1.607e-6
-0.071, -1.610e-6
-0.072, -1.610e-6
-0.073, -1.610e-6
-0.074, -1.610e-6
-0.075, -1.609e-6
-0.076, -1.615e-6
-0.077, -1.614e-6
-0.078, -1.611e-6
-0.079, -1.613e-6
-0.080, -1.613e-6
-0.081, -1.613e-6
-0.082, -1.613e-6
-0.083, -1.613e-6
-0.084, -1.616e-6
-0.085, -1.617e-6
-0.086, -1.615e-6
-0.087, -1.619e-6
-0.088, -1.619e-6
-0.089, -1.617e-6
-0.090, -1.618e-6
-0.091, -1.620e-6
-0.092, -1.623e-6
-0.093, -1.622e-6
-0.094, -1.624e-6
-0.095, -1.625e-6
-0.096, -1.627e-6
-0.097, -1.628e-6
-0.098, -1.631e-6
-0.099, -1.629e-6
-0.100, -1.634e-6
-0.101, -1.632e-6
-0.102, -1.638e-6
-0.103, -1.639e-6
-0.104, -1.642e-6
-0.105, -1.640e-6
-0.106, -1.643e-6
-0.107, -1.643e-6
-0.108, -1.646e-6
-0.109, -1.648e-6
-0.110, -1.647e-6
-0.111, -1.651e-6
-0.112, -1.654e-6
-0.113, -1.654e-6
-0.114, -1.656e-6
-0.115, -1.651e-6
-0.116, -1.662e-6
-0.117, -1.662e-6
-0.118, -1.662e-6
-0.119, -1.666e-6
-0.120, -1.669e-6
-0.121, -1.670e-6
-0.122, -1.671e-6
-0.123, -1.673e-6
-0.124, -1.678e-6
-0.125, -1.679e-6
-0.126, -1.678e-6
-0.127, -1.685e-6
-0.128, -1.693e-6
-0.129, -1.690e-6
-0.130, -1.692e-6
-0.131, -1.690e-6
-0.132, -1.696e-6
-0.133, -1.698e-6
-0.134, -1.698e-6
-0.135, -1.704e-6
-0.136, -1.706e-6
-0.137, -1.708e-6
-0.138, -1.710e-6
-0.139, -1.712e-6
-0.140, -1.715e-6
-0.141, -1.717e-6
-0.142, -1.719e-6
-0.143, -1.724e-6
-0.144, -1.727e-6
-0.145, -1.728e-6
-0.146, -1.732e-6
-0.147, -1.735e-6
-0.148, -1.742e-6
-0.149, -1.743e-6
-0.150, -1.744e-6
-0.151, -1.748e-6
-0.152, -1.752e-6
-0.153, -1.753e-6
-0.154, -1.756e-6
-0.155, -1.759e-6
-0.156, -1.764e-6
-0.157, -1.767e-6
-0.158, -1.770e-6
-0.159, -1.775e-6
-0.160, -1.777e-6
-0.161, -1.780e-6
-0.162, -1.783e-6
-0.163, -1.787e-6
-0.164, -1.791e-6
-0.165, -1.795e-6
-0.166, -1.790e-6
-0.167, -1.800e-6
-0.168, -1.805e-6
-0.169, -1.805e-6
-0.170, -1.809e-6
-0.171, -1.813e-6
-0.172, -1.817e-6
-0.173, -1.821e-6
-0.174, -1.822e-6
-0.175, -1.827e-6
-0.176, -1.830e-6
-0.177, -1.833e-6
-0.178, -1.836e-6
-0.179, -1.845e-6
-0.180, -1.846e-6
-0.181, -1.849e-6
-0.182, -1.850e-6
-0.183, -1.857e-6
-0.184, -1.861e-6
-0.185, -1.866e-6
-0.186, -1.866e-6
-0.187, -1.870e-6
-0.188, -1.875e-6
-0.189, -1.879e-6
-0.190, -1.882e-6
-0.191, -1.887e-6
-0.192, -1.886e-6
-0.193, -1.894e-6
-0.194, -1.898e-6
-0.195, -1.903e-6
-0.196, -1.907e-6
-0.197, -1.910e-6
-0.198, -1.911e-6
-0.199, -1.918e-6
-0.200, -1.923e-6
-0.201, -1.925e-6
-0.202, -1.928e-6
-0.203, -1.933e-6
-0.204, -1.930e-6
-0.205, -1.939e-6
-0.206, -1.940e-6
-0.207, -1.948e-6
-0.208, -1.951e-6
-0.209, -1.955e-6
-0.210, -1.960e-6
-0.211, -1.961e-6
-0.212, -1.967e-6
-0.213, -1.971e-6
-0.214, -1.972e-6
-0.215, -1.979e-6
-0.216, -1.982e-6
-0.217, -1.981e-6
-0.218, -1.989e-6
-0.219, -1.992e-6
-0.220, -1.998e-6
-0.221, -2.001e-6
-0.222, -2.006e-6
-0.223, -2.010e-6
-0.224, -2.016e-6
-0.225, -2.018e-6
-0.226, -2.022e-6
-0.227, -2.027e-6
-0.228, -2.032e-6
-0.229, -2.035e-6
-0.230, -2.042e-6
-0.231, -2.041e-6
-0.232, -2.048e-6
-0.233, -2.049e-6
-0.234, -2.052e-6
-0.235, -2.057e-6
-0.236, -2.062e-6
-0.237, -2.064e-6
-0.238, -2.068e-6
-0.239, -2.073e-6
-0.240, -2.077e-6
-0.241, -2.081e-6
-0.242, -2.084e-6
-0.243, -2.081e-6
-0.244, -2.090e-6
-0.245, -2.095e-6
-0.246, -2.096e-6
-0.247, -2.103e-6
-0.248, -2.107e-6
-0.249, -2.109e-6
-0.250, -2.114e-6
-0.251, -2.117e-6
-0.252, -2.121e-6
-0.253, -2.124e-6
-0.254, -2.126e-6
-0.255, -2.133e-6
-0.256, -2.134e-6
-0.257, -2.139e-6
-0.258, -2.143e-6
-0.259, -2.146e-6
-0.260, -2.151e-6
-0.261, -2.154e-6
-0.262, -2.156e-6
-0.263, -2.159e-6
-0.264, -2.164e-6
-0.265, -2.167e-6
-0.266, -2.169e-6
-0.267, -2.174e-6
-0.268, -2.174e-6
-0.269, -2.175e-6
-0.270, -2.180e-6
-0.271, -2.184e-6
-0.272, -2.191e-6
-0.273, -2.193e-6
-0.274, -2.193e-6
-0.275, -2.196e-6
-0.276, -2.201e-6
-0.277, -2.205e-6
-0.278, -2.205e-6
-0.279, -2.207e-6
-0.280, -2.213e-6
-0.281, -2.220e-6
-0.282, -2.218e-6
-0.283, -2.220e-6
-0.284, -2.226e-6
-0.285, -2.229e-6
-0.286, -2.231e-6
-0.287, -2.235e-6
-0.288, -2.233e-6
-0.289, -2.237e-6
-0.290, -2.239e-6
-0.291, -2.240e-6
-0.292, -2.246e-6
-0.293, -2.248e-6
-0.294, -2.244e-6
-0.295, -2.251e-6
-0.296, -2.255e-6
-0.297, -2.254e-6
-0.298, -2.259e-6
-0.299, -2.261e-6
-0.300, -2.264e-6
-0.301, -2.265e-6
-0.302, -2.267e-6
-0.303, -2.269e-6
-0.304, -2.272e-6
-0.305, -2.274e-6
-0.306, -2.275e-6
-0.307, -2.280e-6
-0.308, -2.281e-6
-0.309, -2.282e-6
-0.310, -2.282e-6
-0.311, -2.287e-6
-0.312, -2.289e-6
-0.313, -2.290e-6
-0.314, -2.290e-6
-0.315, -2.290e-6
-0.316, -2.297e-6
-0.317, -2.296e-6
-0.318, -2.298e-6
-0.319, -2.300e-6
-0.320, -2.299e-6
-0.321, -2.300e-6
-0.322, -2.305e-6
-0.323, -2.304e-6
-0.324, -2.308e-6
-0.325, -2.309e-6
-0.326, -2.309e-6
-0.327, -2.313e-6
-0.328, -2.314e-6
-0.329, -2.317e-6
-0.330, -2.316e-6
-0.331, -2.319e-6
-0.332, -2.326e-6
-0.333, -2.325e-6
-0.334, -2.323e-6
-0.335, -2.326e-6
-0.336, -2.330e-6
-0.337, -2.331e-6
-0.338, -2.330e-6
-0.339, -2.330e-6
-0.340, -2.336e-6
-0.341, -2.334e-6
-0.342, -2.337e-6
-0.343, -2.339e-6
-0.344, -2.342e-6
-0.345, -2.337e-6
-0.346, -2.343e-6
-0.347, -2.343e-6
-0.348, -2.346e-6
-0.349, -2.348e-6
-0.350, -2.347e-6
-0.351, -2.351e-6
-0.352, -2.353e-6
-0.353, -2.353e-6
-0.354, -2.354e-6
-0.355, -2.356e-6
-0.356, -2.361e-6
-0.357, -2.362e-6
-0.358, -2.358e-6
-0.359, -2.363e-6
-0.360, -2.365e-6
-0.361, -2.365e-6
-0.362, -2.367e-6
-0.363, -2.368e-6
-0.364, -2.371e-6
-0.365, -2.370e-6
-0.366, -2.373e-6
-0.367, -2.375e-6
-0.368, -2.377e-6
-0.369, -2.377e-6
-0.370, -2.378e-6
-0.371, -2.376e-6
-0.372, -2.381e-6
-0.373, -2.383e-6
-0.374, -2.381e-6
-0.375, -2.385e-6
-0.376, -2.387e-6
-0.377, -2.389e-6
-0.378, -2.387e-6
-0.379, -2.392e-6
-0.380, -2.393e-6
-0.381, -2.391e-6
-0.382, -2.393e-6
-0.383, -2.395e-6
-0.384, -2.404e-6
-0.385, -2.398e-6
-0.386, -2.398e-6
-0.387, -2.400e-6
-0.388, -2.402e-6
-0.389, -2.405e-6
-0.390, -2.400e-6
-0.391, -2.405e-6
-0.392, -2.406e-6
-0.393, -2.407e-6
-0.394, -2.406e-6
-0.395, -2.409e-6
-0.396, -2.408e-6
-0.397, -2.408e-6
-0.398, -2.411e-6
-0.399, -2.414e-6
-0.400, -2.414e-6
-0.401, -2.415e-6
-0.402, -2.415e-6
-0.403, -2.417e-6
-0.404, -2.419e-6
-0.405, -2.419e-6
-0.406, -2.420e-6
-0.407, -2.421e-6
-0.408, -2.423e-6
-0.409, -2.405e-6
-0.410, -2.419e-6
-0.411, -2.421e-6
-0.412, -2.425e-6
-0.413, -2.426e-6
-0.414, -2.425e-6
-0.415, -2.428e-6
-0.416, -2.428e-6
-0.417, -2.431e-6
-0.418, -2.429e-6
-0.419, -2.431e-6
-0.420, -2.434e-6
-0.421, -2.432e-6
-0.422, -2.429e-6
-0.423, -2.435e-6
-0.424, -2.436e-6
-0.425, -2.437e-6
-0.426, -2.436e-6
-0.427, -2.438e-6
-0.428, -2.442e-6
-0.429, -2.440e-6
-0.430, -2.440e-6
-0.431, -2.443e-6
-0.432, -2.445e-6
-0.433, -2.446e-6
-0.434, -2.444e-6
-0.435, -2.450e-6
-0.436, -2.450e-6
-0.437, -2.451e-6
-0.438, -2.447e-6
-0.439, -2.450e-6
-0.440, -2.452e-6
-0.441, -2.452e-6
-0.442, -2.452e-6
-0.443, -2.454e-6
-0.444, -2.457e-6
-0.445, -2.457e-6
-0.446, -2.455e-6
-0.447, -2.463e-6
-0.448, -2.454e-6
-0.449, -2.459e-6
-0.450, -2.460e-6
-0.451, -2.460e-6
-0.452, -2.464e-6
-0.453, -2.466e-6
-0.454, -2.464e-6
-0.455, -2.468e-6
-0.456, -2.467e-6
-0.457, -2.469e-6
-0.458, -2.470e-6
-0.459, -2.470e-6
-0.460, -2.474e-6
-0.461, -2.473e-6
-0.462, -2.474e-6
-0.463, -2.477e-6
-0.464, -2.479e-6
-0.465, -2.477e-6
-0.466, -2.478e-6
-0.467, -2.477e-6
-0.468, -2.485e-6
-0.469, -2.482e-6
-0.470, -2.485e-6
-0.471, -2.485e-6
-0.472, -2.486e-6
-0.473, -2.484e-6
-0.474, -2.486e-6
-0.475, -2.490e-6
-0.476, -2.492e-6
-0.477, -2.495e-6
-0.478, -2.493e-6
-0.479, -2.495e-6
-0.480, -2.496e-6
-0.481, -2.498e-6
-0.482, -2.497e-6
-0.483, -2.500e-6
-0.484, -2.503e-6
-0.485, -2.504e-6
-0.486, -2.507e-6
-0.487, -2.508e-6
-0.488, -2.510e-6
-0.489, -2.508e-6
-0.490, -2.510e-6
-0.491, -2.511e-6
-0.492, -2.515e-6
-0.493, -2.513e-6
-0.494, -2.514e-6
-0.495, -2.519e-6
-0.496, -2.518e-6
-0.497, -2.521e-6
-0.498, -2.518e-6
-0.499, -2.517e-6
-0.500, -2.525e-6
-0.501, -2.523e-6
-0.502, -2.524e-6
-0.503, -2.528e-6
-0.504, -2.528e-6
-0.505, -2.531e-6
-0.506, -2.531e-6
-0.507, -2.534e-6
-0.508, -2.537e-6
-0.509, -2.535e-6
-0.510, -2.538e-6
-0.511, -2.539e-6
-0.512, -2.545e-6
-0.513, -2.544e-6
-0.514, -2.542e-6
-0.515, -2.545e-6
-0.516, -2.547e-6
-0.517, -2.551e-6
-0.518, -2.550e-6
-0.519, -2.553e-6
-0.520, -2.553e-6
-0.521, -2.555e-6
-0.522, -2.559e-6
-0.523, -2.552e-6
-0.524, -2.557e-6
-0.525, -2.559e-6
-0.526, -2.560e-6
-0.527, -2.562e-6
-0.528, -2.566e-6
-0.529, -2.565e-6
-0.530, -2.566e-6
-0.531, -2.566e-6
-0.532, -2.573e-6
-0.533, -2.573e-6
-0.534, -2.573e-6
-0.535, -2.579e-6
-0.536, -2.578e-6
-0.537, -2.581e-6
-0.538, -2.582e-6
-0.539, -2.584e-6
-0.540, -2.585e-6
-0.541, -2.586e-6
-0.542, -2.587e-6
-0.543, -2.588e-6
-0.544, -2.591e-6
-0.545, -2.591e-6
-0.546, -2.593e-6
-0.547, -2.595e-6
-0.548, -2.599e-6
-0.549, -2.600e-6
-0.550, -2.595e-6
-0.551, -2.601e-6
-0.552, -2.603e-6
-0.553, -2.606e-6
-0.554, -2.604e-6
-0.555, -2.609e-6
-0.556, -2.611e-6
-0.557, -2.611e-6
-0.558, -2.612e-6
-0.559, -2.616e-6
-0.560, -2.615e-6
-0.561, -2.618e-6
-0.562, -2.622e-6
-0.563, -2.619e-6
-0.564, -2.625e-6
-0.565, -2.625e-6
-0.566, -2.625e-6
-0.567, -2.628e-6
-0.568, -2.631e-6
-0.569, -2.631e-6
-0.570, -2.635e-6
-0.571, -2.634e-6
-0.572, -2.640e-6
-0.573, -2.641e-6
-0.574, -2.639e-6
-0.575, -2.644e-6
-0.576, -2.639e-6
-0.577, -2.644e-6
-0.578, -2.647e-6
-0.579, -2.648e-6
-0.580, -2.652e-6
-0.581, -2.656e-6
-0.582, -2.653e-6
-0.583, -2.656e-6
-0.584, -2.660e-6
-0.585, -2.660e-6
-0.586, -2.660e-6
-0.587, -2.662e-6
-0.588, -2.674e-6
-0.589, -2.667e-6
-0.590, -2.670e-6
-0.591, -2.672e-6
-0.592, -2.675e-6
-0.593, -2.674e-6
-0.594, -2.675e-6
-0.595, -2.678e-6
-0.596, -2.684e-6
-0.597, -2.680e-6
-0.598, -2.683e-6
-0.599, -2.686e-6
-0.600, -2.691e-6
-0.601, -2.686e-6
-0.602, -2.689e-6
-0.603, -2.692e-6
-0.604, -2.695e-6
-0.605, -2.699e-6
-0.606, -2.697e-6
-0.607, -2.702e-6
-0.608, -2.703e-6
-0.609, -2.702e-6
-0.610, -2.705e-6
-0.611, -2.707e-6
-0.612, -2.712e-6
-0.613, -2.713e-6
-0.614, -2.698e-6
-0.615, -2.710e-6
-0.616, -2.717e-6
-0.617, -2.715e-6
-0.618, -2.721e-6
-0.619, -2.723e-6
-0.620, -2.725e-6
-0.621, -2.727e-6
-0.622, -2.726e-6
-0.623, -2.731e-6
-0.624, -2.733e-6
-0.625, -2.734e-6
-0.626, -2.736e-6
-0.627, -2.731e-6
-0.628, -2.742e-6
-0.629, -2.743e-6
-0.630, -2.740e-6
-0.631, -2.746e-6
-0.632, -2.748e-6
-0.633, -2.746e-6
-0.634, -2.749e-6
-0.635, -2.751e-6
-0.636, -2.755e-6
-0.637, -2.756e-6
-0.638, -2.755e-6
-0.639, -2.758e-6
-0.640, -2.770e-6
-0.641, -2.764e-6
-0.642, -2.765e-6
-0.643, -2.766e-6
-0.644, -2.771e-6
-0.645, -2.772e-6
-0.646, -2.772e-6
-0.647, -2.773e-6
-0.648, -2.777e-6
-0.649, -2.775e-6
-0.650, -2.779e-6
-0.651, -2.781e-6
-0.652, -2.782e-6
-0.653, -2.784e-6
-0.654, -2.784e-6
-0.655, -2.788e-6
-0.656, -2.792e-6
-0.657, -2.790e-6
-0.658, -2.793e-6
-0.659, -2.793e-6
-0.660, -2.798e-6
-0.661, -2.800e-6
-0.662, -2.800e-6
-0.663, -2.803e-6
-0.664, -2.806e-6
-0.665, -2.803e-6
-0.666, -2.808e-6
-0.667, -2.808e-6
-0.668, -2.813e-6
-0.669, -2.815e-6
-0.670, -2.813e-6
-0.671, -2.819e-6
-0.672, -2.823e-6
-0.673, -2.821e-6
-0.674, -2.823e-6
-0.675, -2.825e-6
-0.676, -2.829e-6
-0.677, -2.831e-6
-0.678, -2.827e-6
-0.679, -2.834e-6
-0.680, -2.836e-6
-0.681, -2.837e-6
-0.682, -2.838e-6
-0.683, -2.844e-6
-0.684, -2.844e-6
-0.685, -2.846e-6
-0.686, -2.848e-6
-0.687, -2.850e-6
-0.688, -2.855e-6
-0.689, -2.855e-6
-0.690, -2.860e-6
-0.691, -2.866e-6
-0.692, -2.865e-6
-0.693, -2.868e-6
-0.694, -2.864e-6
-0.695, -2.872e-6
-0.696, -2.874e-6
-0.697, -2.876e-6
-0.698, -2.877e-6
-0.699, -2.880e-6
-0.700, -2.884e-6
-0.701, -2.886e-6
-0.702, -2.885e-6
-0.703, -2.891e-6
-0.704, -2.889e-6
-0.705, -2.894e-6
-0.706, -2.898e-6
-0.707, -2.899e-6
-0.708, -2.905e-6
-0.709, -2.906e-6
-0.710, -2.908e-6
-0.711, -2.912e-6
-0.712, -2.916e-6
-0.713, -2.918e-6
-0.714, -2.921e-6
-0.715, -2.926e-6
-0.716, -2.931e-6
-0.717, -2.932e-6
-0.718, -2.934e-6
-0.719, -2.937e-6
-0.720, -2.940e-6
-0.721, -2.943e-6
-0.722, -2.947e-6
-0.723, -2.949e-6
-0.724, -2.958e-6
-0.725, -2.959e-6
-0.726, -2.961e-6
-0.727, -2.967e-6
-0.728, -2.971e-6
-0.729, -2.967e-6
-0.730, -2.973e-6
-0.731, -2.979e-6
-0.732, -2.983e-6
-0.733, -2.990e-6
-0.734, -2.987e-6
-0.735, -2.995e-6
-0.736, -3.001e-6
-0.737, -3.002e-6
-0.738, -3.009e-6
-0.739, -3.011e-6
-0.740, -3.019e-6
-0.741, -3.022e-6
-0.742, -3.029e-6
-0.743, -3.033e-6
-0.744, -3.041e-6
-0.745, -3.040e-6
-0.746, -3.045e-6
-0.747, -3.051e-6
-0.748, -3.059e-6
-0.749, -3.062e-6
-0.750, -3.067e-6
-0.751, -3.070e-6
-0.752, -3.079e-6
-0.753, -3.086e-6
-0.754, -3.089e-6
-0.755, -3.089e-6
-0.756, -3.101e-6
-0.757, -3.107e-6
-0.758, -3.112e-6
-0.759, -3.121e-6
-0.760, -3.129e-6
-0.761, -3.130e-6
-0.762, -3.137e-6
-0.763, -3.144e-6
-0.764, -3.154e-6
-0.765, -3.162e-6
-0.766, -3.165e-6
-0.767, -3.175e-6
-0.768, -3.181e-6
-0.769, -3.189e-6
-0.770, -3.198e-6
-0.771, -3.200e-6
-0.772, -3.213e-6
-0.773, -3.220e-6
-0.774, -3.223e-6
-0.775, -3.235e-6
-0.776, -3.244e-6
-0.777, -3.250e-6
-0.778, -3.260e-6
-0.779, -3.268e-6
-0.780, -3.276e-6
-0.781, -3.284e-6
-0.782, -3.292e-6
-0.783, -3.302e-6
-0.784, -3.312e-6
-0.785, -3.324e-6
-0.786, -3.331e-6
-0.787, -3.340e-6
-0.788, -3.355e-6
-0.789, -3.362e-6
-0.790, -3.371e-6
-0.791, -3.384e-6
-0.792, -3.396e-6
-0.793, -3.413e-6
-0.794, -3.423e-6
-0.795, -3.431e-6
-0.796, -3.447e-6
-0.797, -3.460e-6
-0.798, -3.469e-6
-0.799, -3.488e-6
-0.800, -3.498e-6
-0.801, -3.513e-6
-0.802, -3.527e-6
-0.803, -3.540e-6
-0.804, -3.565e-6
-0.805, -3.575e-6
-0.806, -3.586e-6
-0.807, -3.610e-6
-0.808, -3.632e-6
-0.809, -3.647e-6
-0.810, -3.671e-6
-0.811, -3.693e-6
-0.812, -3.713e-6
-0.813, -3.736e-6
-0.814, -3.756e-6
-0.815, -3.787e-6
-0.816, -3.807e-6
-0.817, -3.831e-6
-0.818, -3.859e-6
-0.819, -3.871e-6
-0.820, -3.909e-6
-0.821, -3.939e-6
-0.822, -3.967e-6
-0.823, -4.002e-6
-0.824, -4.036e-6
-0.825, -4.060e-6
-0.826, -4.092e-6
-0.827, -4.128e-6
-0.828, -4.169e-6
-0.829, -4.203e-6
-0.830, -4.237e-6
-0.831, -4.286e-6
-0.832, -4.315e-6
-0.833, -4.358e-6
-0.834, -4.404e-6
-0.835, -4.452e-6
-0.836, -4.502e-6
-0.837, -4.546e-6
-0.838, -4.592e-6
-0.839, -4.648e-6
-0.840, -4.703e-6
-0.841, -4.754e-6
-0.842, -4.812e-6
-0.843, -4.867e-6
-0.844, -4.944e-6
-0.845, -4.998e-6
-0.846, -5.059e-6
-0.847, -5.128e-6
-0.848, -5.188e-6
-0.849, -5.258e-6
-0.850, -5.327e-6
-0.851, -5.395e-6
-0.852, -5.478e-6
-0.853, -5.551e-6
-0.854, -5.624e-6
-0.855, -5.708e-6
-0.856, -5.793e-6
-0.857, -5.860e-6
-0.858, -5.945e-6
-0.859, -6.034e-6
-0.860, -6.137e-6
-0.861, -6.222e-6
-0.862, -6.317e-6
-0.863, -6.421e-6
-0.864, -6.518e-6
-0.865, -6.612e-6
-0.866, -6.717e-6
-0.867, -6.829e-6
-0.868, -6.943e-6
-0.869, -7.055e-6
-0.870, -7.155e-6
-0.871, -7.280e-6
-0.872, -7.398e-6
-0.873, -7.521e-6
-0.874, -7.633e-6
-0.875, -7.762e-6
-0.876, -7.907e-6
-0.877, -8.036e-6
-0.878, -8.158e-6
-0.879, -8.305e-6
-0.880, -8.431e-6
-0.881, -8.572e-6
-0.882, -8.716e-6
-0.883, -8.812e-6
-0.884, -8.993e-6
-0.885, -9.136e-6
-0.886, -9.275e-6
-0.887, -9.443e-6
-0.888, -9.578e-6
-0.889, -9.732e-6
-0.890, -9.883e-6
-0.891, -1.003e-5
-0.892, -1.020e-5
-0.893, -1.035e-5
-0.894, -1.052e-5
-0.895, -1.067e-5
-0.896, -1.089e-5
-0.897, -1.101e-5
-0.898, -1.118e-5
-0.899, -1.133e-5
-0.900, -1.148e-5
-0.901, -1.165e-5
-0.902, -1.180e-5
-0.903, -1.197e-5
-0.904, -1.214e-5
-0.905, -1.229e-5
-0.906, -1.245e-5
-0.907, -1.260e-5
-0.908, -1.276e-5
-0.909, -1.290e-5
-0.910, -1.305e-5
-0.911, -1.324e-5
-0.912, -1.337e-5
-0.913, -1.354e-5
-0.914, -1.367e-5
-0.915, -1.382e-5
-0.916, -1.399e-5
-0.917, -1.413e-5
-0.918, -1.425e-5
-0.919, -1.443e-5
-0.920, -1.457e-5
-0.921, -1.473e-5
-0.922, -1.485e-5
-0.923, -1.499e-5
-0.924, -1.513e-5
-0.925, -1.526e-5
-0.926, -1.537e-5
-0.927, -1.551e-5
-0.928, -1.563e-5
-0.929, -1.577e-5
-0.930, -1.590e-5
-0.931, -1.600e-5
-0.932, -1.614e-5
-0.933, -1.625e-5
-0.934, -1.633e-5
-0.935, -1.645e-5
-0.936, -1.658e-5
-0.937, -1.669e-5
-0.938, -1.680e-5
-0.939, -1.691e-5
-0.940, -1.704e-5
-0.941, -1.713e-5
-0.942, -1.724e-5
-0.943, -1.736e-5
-0.944, -1.747e-5
-0.945, -1.757e-5
-0.946, -1.767e-5
-0.947, -1.783e-5
-0.948, -1.792e-5
-0.949, -1.803e-5
-0.950, -1.811e-5
-0.951, -1.823e-5
-0.952, -1.835e-5
-0.953, -1.843e-5
-0.954, -1.854e-5
-0.955, -1.864e-5
-0.956, -1.878e-5
-0.957, -1.887e-5
-0.958, -1.898e-5
-0.959, -1.911e-5
-0.960, -1.916e-5
-0.961, -1.929e-5
-0.962, -1.940e-5
-0.963, -1.953e-5
-0.964, -1.965e-5
-0.965, -1.977e-5
-0.966, -1.987e-5
-0.967, -2.000e-5
-0.968, -2.012e-5
-0.969, -2.023e-5
-0.970, -2.036e-5
-0.971, -2.048e-5
-0.972, -2.060e-5
-0.973, -2.071e-5
-0.974, -2.081e-5
-0.975, -2.095e-5
-0.976, -2.108e-5
-0.977, -2.120e-5
-0.978, -2.132e-5
-0.979, -2.144e-5
-0.980, -2.157e-5
-0.981, -2.169e-5
-0.982, -2.178e-5
-0.983, -2.191e-5
-0.984, -2.204e-5
-0.985, -2.211e-5
-0.986, -2.221e-5
-0.987, -2.234e-5
-0.988, -2.246e-5
-0.989, -2.256e-5
-0.990, -2.265e-5
-0.991, -2.277e-5
-0.992, -2.286e-5
-0.993, -2.296e-5
-0.994, -2.304e-5
-0.995, -2.313e-5
-0.996, -2.324e-5
-0.997, -2.332e-5
-0.998, -2.344e-5
-0.999, -2.350e-5
-1.000, -2.355e-5
-1.001, -2.362e-5
-1.002, -2.368e-5
-1.003, -2.373e-5
-1.004, -2.380e-5
-1.005, -2.385e-5
-1.006, -2.387e-5
-1.007, -2.394e-5
-1.008, -2.396e-5
-1.009, -2.400e-5
-1.010, -2.403e-5
-1.011, -2.400e-5
-1.012, -2.407e-5
-1.013, -2.409e-5
-1.014, -2.409e-5
-1.015, -2.410e-5
-1.016, -2.411e-5
-1.017, -2.411e-5
-1.018, -2.410e-5
-1.019, -2.408e-5
-1.020, -2.409e-5
-1.021, -2.407e-5
-1.022, -2.405e-5
-1.023, -2.403e-5
-1.024, -2.391e-5
-1.025, -2.394e-5
-1.026, -2.392e-5
-1.027, -2.389e-5
-1.028, -2.385e-5
-1.029, -2.382e-5
-1.030, -2.377e-5
-1.031, -2.374e-5
-1.032, -2.368e-5
-1.033, -2.364e-5
-1.034, -2.359e-5
-1.035, -2.353e-5
-1.036, -2.347e-5
-1.037, -2.341e-5
-1.038, -2.334e-5
-1.039, -2.330e-5
-1.040, -2.324e-5
-1.041, -2.318e-5
-1.042, -2.311e-5
-1.043, -2.304e-5
-1.044, -2.298e-5
-1.045, -2.292e-5
-1.046, -2.284e-5
-1.047, -2.279e-5
-1.048, -2.272e-5
-1.049, -2.266e-5
-1.050, -2.259e-5
-1.051, -2.251e-5
-1.052, -2.244e-5
-1.053, -2.237e-5
-1.054, -2.229e-5
-1.055, -2.223e-5
-1.056, -2.215e-5
-1.057, -2.208e-5
-1.058, -2.200e-5
-1.059, -2.194e-5
-1.060, -2.187e-5
-1.061, -2.180e-5
-1.062, -2.171e-5
-1.063, -2.164e-5
-1.064, -2.158e-5
-1.065, -2.152e-5
-1.066, -2.144e-5
-1.067, -2.137e-5
-1.068, -2.132e-5
-1.069, -2.124e-5
-1.070, -2.117e-5
-1.071, -2.110e-5
-1.072, -2.104e-5
-1.073, -2.097e-5
-1.074, -2.091e-5
-1.075, -2.083e-5
-1.076, -2.078e-5
-1.077, -2.071e-5
-1.078, -2.064e-5
-1.079, -2.058e-5
-1.080, -2.052e-5
-1.081, -2.046e-5
-1.082, -2.040e-5
-1.083, -2.034e-5
-1.084, -2.029e-5
-1.085, -2.022e-5
-1.086, -2.016e-5
-1.087, -2.010e-5
-1.088, -2.004e-5
-1.089, -1.999e-5
-1.090, -1.993e-5
-1.091, -1.988e-5
-1.092, -1.983e-5
-1.093, -1.977e-5
-1.094, -1.972e-5
-1.095, -1.967e-5
-1.096, -1.962e-5
-1.097, -1.957e-5
-1.098, -1.952e-5
-1.099, -1.946e-5
-1.100, -1.942e-5
-1.101, -1.937e-5
-1.102, -1.932e-5
-1.103, -1.927e-5
-1.104, -1.922e-5
-1.105, -1.918e-5
-1.106, -1.913e-5
-1.107, -1.908e-5
-1.108, -1.904e-5
-1.109, -1.899e-5
-1.110, -1.895e-5
-1.111, -1.891e-5
-1.112, -1.887e-5
-1.113, -1.882e-5
-1.114, -1.878e-5
-1.115, -1.873e-5
-1.116, -1.870e-5
-1.117, -1.866e-5
-1.118, -1.861e-5
-1.119, -1.858e-5
-1.120, -1.854e-5
-1.121, -1.850e-5
-1.122, -1.846e-5
-1.123, -1.843e-5
-1.124, -1.840e-5
-1.125, -1.836e-5
-1.126, -1.832e-5
-1.127, -1.828e-5
-1.128, -1.825e-5
-1.129, -1.821e-5
-1.130, -1.818e-5
-1.131, -1.815e-5
-1.132, -1.811e-5
-1.133, -1.808e-5
-1.134, -1.805e-5
-1.135, -1.802e-5
-1.136, -1.798e-5
-1.137, -1.795e-5
-1.138, -1.792e-5
-1.139, -1.789e-5
-1.140, -1.786e-5
-1.141, -1.783e-5
-1.142, -1.780e-5
-1.143, -1.778e-5
-1.144, -1.775e-5
-1.145, -1.772e-5
-1.146, -1.769e-5
-1.147, -1.766e-5
-1.148, -1.764e-5
-1.149, -1.761e-5
-1.150, -1.759e-5
-1.151, -1.756e-5
-1.152, -1.754e-5
-1.153, -1.751e-5
-1.154, -1.749e-5
-1.155, -1.746e-5
-1.156, -1.744e-5
-1.157, -1.742e-5
-1.158, -1.739e-5
-1.159, -1.737e-5
-1.160, -1.735e-5
-1.161, -1.732e-5
-1.162, -1.730e-5
-1.163, -1.728e-5
-1.164, -1.725e-5
-1.165, -1.724e-5
-1.166, -1.721e-5
-1.167, -1.719e-5
-1.168, -1.717e-5
-1.169, -1.715e-5
-1.170, -1.713e-5
-1.171, -1.711e-5
-1.172, -1.709e-5
-1.173, -1.707e-5
-1.174, -1.705e-5
-1.175, -1.704e-5
-1.176, -1.702e-5
-1.177, -1.700e-5
-1.178, -1.698e-5
-1.179, -1.696e-5
-1.180, -1.694e-5
-1.181, -1.693e-5
-1.182, -1.691e-5
-1.183, -1.690e-5
-1.184, -1.688e-5
-1.185, -1.686e-5
-1.186, -1.684e-5
-1.187, -1.683e-5
-1.188, -1.681e-5
-1.189, -1.679e-5
-1.190, -1.677e-5
-1.191, -1.676e-5
-1.192, -1.675e-5
-1.193, -1.673e-5
-1.194, -1.671e-5
-1.195, -1.670e-5
-1.196, -1.669e-5
-1.197, -1.667e-5
-1.198, -1.665e-5
-1.199, -1.664e-5
-1.200, -1.663e-5
-1.201, -1.661e-5
-1.202, -1.660e-5
-1.203, -1.659e-5
-1.204, -1.658e-5
-1.205, -1.656e-5
-1.206, -1.654e-5
-1.207, -1.653e-5
-1.208, -1.653e-5
-1.209, -1.651e-5
-1.210, -1.650e-5
-1.211, -1.648e-5
-1.212, -1.647e-5
-1.213, -1.646e-5
-1.214, -1.645e-5
-1.215, -1.644e-5
-1.216, -1.642e-5
-1.217, -1.641e-5
-1.218, -1.640e-5
-1.219, -1.639e-5
-1.220, -1.638e-5
-1.221, -1.637e-5
-1.222, -1.635e-5
-1.223, -1.635e-5
-1.224, -1.634e-5
-1.225, -1.632e-5
-1.226, -1.631e-5
-1.227, -1.630e-5
-1.228, -1.628e-5
-1.229, -1.628e-5
-1.230, -1.627e-5
-1.231, -1.626e-5
-1.232, -1.625e-5
-1.233, -1.624e-5
-1.234, -1.623e-5
-1.235, -1.622e-5
-1.236, -1.622e-5
-1.237, -1.621e-5
-1.238, -1.619e-5
-1.239, -1.619e-5
-1.240, -1.618e-5
-1.241, -1.617e-5
-1.242, -1.616e-5
-1.243, -1.615e-5
-1.244, -1.614e-5
-1.245, -1.614e-5
-1.246, -1.613e-5
-1.247, -1.612e-5
-1.248, -1.611e-5
-1.249, -1.610e-5
-1.250, -1.609e-5
-1.251, -1.608e-5
-1.252, -1.608e-5
-1.253, -1.607e-5
-1.254, -1.606e-5
-1.255, -1.606e-5
-1.256, -1.605e-5
-1.257, -1.604e-5
-1.258, -1.603e-5
-1.259, -1.602e-5
-1.260, -1.602e-5
-1.261, -1.601e-5
-1.262, -1.600e-5
-1.263, -1.600e-5
-1.264, -1.599e-5
-1.265, -1.598e-5
-1.266, -1.597e-5
-1.267, -1.596e-5
-1.268, -1.596e-5
-1.269, -1.596e-5
-1.270, -1.594e-5
-1.271, -1.594e-5
-1.272, -1.593e-5
-1.273, -1.593e-5
-1.274, -1.592e-5
-1.275, -1.591e-5
-1.276, -1.591e-5
-1.277, -1.590e-5
-1.278, -1.590e-5
-1.279, -1.589e-5
-1.280, -1.588e-5
-1.281, -1.588e-5
-1.282, -1.587e-5
-1.283, -1.586e-5
-1.284, -1.586e-5
-1.285, -1.585e-5
-1.286, -1.584e-5
-1.287, -1.584e-5
-1.288, -1.583e-5
-1.289, -1.583e-5
-1.290, -1.582e-5
-1.291, -1.582e-5
-1.292, -1.581e-5
-1.293, -1.580e-5
-1.294, -1.580e-5
-1.295, -1.579e-5
-1.296, -1.579e-5
-1.297, -1.578e-5
-1.298, -1.578e-5
-1.299, -1.577e-5
-1.300, -1.577e-5
-1.301, -1.576e-5
-1.302, -1.576e-5
-1.303, -1.575e-5
-1.304, -1.575e-5
-1.305, -1.575e-5
-1.306, -1.574e-5
-1.307, -1.573e-5
-1.308, -1.573e-5
-1.309, -1.572e-5
-1.310, -1.572e-5
-1.311, -1.571e-5
-1.312, -1.571e-5
-1.313, -1.570e-5
-1.314, -1.570e-5
-1.315, -1.569e-5
-1.316, -1.569e-5
-1.317, -1.569e-5
-1.318, -1.568e-5
-1.319, -1.568e-5
-1.320, -1.567e-5
-1.321, -1.567e-5
-1.322, -1.566e-5
-1.323, -1.566e-5
-1.324, -1.566e-5
-1.325, -1.565e-5
-1.326, -1.565e-5
-1.327, -1.564e-5
-1.328, -1.564e-5
-1.329, -1.564e-5
-1.330, -1.563e-5
-1.331, -1.563e-5
-1.332, -1.563e-5
-1.333, -1.562e-5
-1.334, -1.561e-5
-1.335, -1.561e-5
-1.336, -1.561e-5
-1.337, -1.560e-5
-1.338, -1.560e-5
-1.339, -1.559e-5
-1.340, -1.559e-5
-1.341, -1.559e-5
-1.342, -1.558e-5
-1.343, -1.558e-5
-1.344, -1.557e-5
-1.345, -1.557e-5
-1.346, -1.557e-5
-1.347, -1.557e-5
-1.348, -1.557e-5
-1.349, -1.556e-5
-1.350, -1.555e-5
-1.351, -1.555e-5
-1.352, -1.555e-5
-1.353, -1.555e-5
-1.354, -1.554e-5
-1.355, -1.554e-5
-1.356, -1.554e-5
-1.357, -1.553e-5
-1.358, -1.553e-5
-1.359, -1.553e-5
-1.360, -1.553e-5
-1.361, -1.552e-5
-1.362, -1.552e-5
-1.363, -1.551e-5
-1.364, -1.551e-5
-1.365, -1.551e-5
-1.366, -1.550e-5
-1.367, -1.550e-5
-1.368, -1.550e-5
-1.369, -1.549e-5
-1.370, -1.549e-5
-1.371, -1.549e-5
-1.372, -1.549e-5
-1.373, -1.548e-5
-1.374, -1.548e-5
-1.375, -1.548e-5
-1.376, -1.547e-5
-1.377, -1.547e-5
-1.378, -1.547e-5
-1.379, -1.547e-5
-1.380, -1.547e-5
-1.381, -1.546e-5
-1.382, -1.546e-5
-1.383, -1.545e-5
-1.384, -1.545e-5
-1.385, -1.545e-5
-1.386, -1.545e-5
-1.387, -1.545e-5
-1.388, -1.544e-5
-1.389, -1.544e-5
-1.390, -1.544e-5
-1.391, -1.544e-5
-1.392, -1.543e-5
-1.393, -1.543e-5
-1.394, -1.543e-5
-1.395, -1.542e-5
-1.396, -1.542e-5
-1.397, -1.542e-5
-1.398, -1.542e-5
-1.399, -1.542e-5
-1.400, -1.541e-5
-1.401, -1.541e-5
-1.402, -1.541e-5
-1.403, -1.541e-5
-1.404, -1.540e-5
-1.405, -1.540e-5
-1.406, -1.540e-5
-1.407, -1.540e-5
-1.408, -1.540e-5
-1.409, -1.539e-5
-1.410, -1.539e-5
-1.411, -1.539e-5
-1.412, -1.539e-5
-1.413, -1.538e-5
-1.414, -1.538e-5
-1.415, -1.538e-5
-1.416, -1.538e-5
-1.417, -1.537e-5
-1.418, -1.537e-5
-1.419, -1.537e-5
-1.420, -1.536e-5
-1.421, -1.536e-5
-1.422, -1.536e-5
-1.423, -1.536e-5
-1.424, -1.536e-5
-1.425, -1.536e-5
-1.426, -1.536e-5
-1.427, -1.535e-5
-1.428, -1.535e-5
-1.429, -1.535e-5
-1.430, -1.535e-5
-1.431, -1.535e-5
-1.432, -1.535e-5
-1.433, -1.534e-5
-1.434, -1.534e-5
-1.435, -1.534e-5
-1.436, -1.534e-5
-1.437, -1.534e-5
-1.438, -1.533e-5
-1.439, -1.533e-5
-1.440, -1.533e-5
-1.441, -1.533e-5
-1.442, -1.533e-5
-1.443, -1.533e-5
-1.444, -1.533e-5
-1.445, -1.533e-5
-1.446, -1.532e-5
-1.447, -1.532e-5
-1.448, -1.532e-5
-1.449, -1.532e-5
-1.450, -1.532e-5
-1.451, -1.532e-5
-1.452, -1.532e-5
-1.453, -1.532e-5
-1.454, -1.531e-5
-1.455, -1.532e-5
-1.456, -1.532e-5
-1.457, -1.531e-5
-1.458, -1.531e-5
-1.459, -1.532e-5
-1.460, -1.531e-5
-1.461, -1.531e-5
-1.462, -1.531e-5
-1.463, -1.531e-5
-1.464, -1.531e-5
-1.465, -1.531e-5
-1.466, -1.531e-5
-1.467, -1.531e-5
-1.468, -1.530e-5
-1.469, -1.531e-5
-1.470, -1.530e-5
-1.471, -1.530e-5
-1.472, -1.530e-5
-1.473, -1.530e-5
-1.474, -1.530e-5
-1.475, -1.530e-5
-1.476, -1.530e-5
-1.477, -1.530e-5
-1.478, -1.530e-5
-1.479, -1.530e-5
-1.480, -1.530e-5
-1.481, -1.530e-5
-1.482, -1.530e-5
-1.483, -1.530e-5
-1.484, -1.530e-5
-1.485, -1.529e-5
-1.486, -1.529e-5
-1.487, -1.529e-5
-1.488, -1.530e-5
-1.489, -1.529e-5
-1.490, -1.529e-5
-1.491, -1.529e-5
-1.492, -1.529e-5
-1.493, -1.529e-5
-1.494, -1.529e-5
-1.495, -1.529e-5
-1.496, -1.529e-5
-1.497, -1.529e-5
-1.498, -1.529e-5
-1.499, -1.529e-5
-1.500, -1.529e-5
-1.501, -1.529e-5
-1.502, -1.529e-5
-1.503, -1.529e-5
-1.504, -1.529e-5
-1.505, -1.529e-5
-1.506, -1.529e-5
-1.507, -1.529e-5
-1.508, -1.529e-5
-1.509, -1.529e-5
-1.510, -1.529e-5
-1.511, -1.529e-5
-1.512, -1.529e-5
-1.513, -1.529e-5
-1.514, -1.529e-5
-1.515, -1.529e-5
-1.516, -1.529e-5
-1.517, -1.529e-5
-1.518, -1.529e-5
-1.519, -1.529e-5
-1.520, -1.529e-5
-1.521, -1.529e-5
-1.522, -1.529e-5
-1.523, -1.529e-5
-1.524, -1.529e-5
-1.525, -1.529e-5
-1.526, -1.529e-5
-1.527, -1.530e-5
-1.528, -1.530e-5
-1.529, -1.530e-5
-1.530, -1.530e-5
-1.531, -1.530e-5
-1.532, -1.530e-5
-1.533, -1.530e-5
-1.534, -1.530e-5
-1.535, -1.530e-5
-1.536, -1.530e-5
-1.537, -1.530e-5
-1.538, -1.530e-5
-1.539, -1.530e-5
-1.540, -1.531e-5
-1.541, -1.531e-5
-1.542, -1.530e-5
-1.543, -1.531e-5
-1.544, -1.531e-5
-1.545, -1.531e-5
-1.546, -1.531e-5
-1.547, -1.531e-5
-1.548, -1.531e-5
-1.549, -1.531e-5
-1.550, -1.531e-5
-1.551, -1.532e-5
-1.552, -1.532e-5
-1.553, -1.532e-5
-1.554, -1.532e-5
-1.555, -1.532e-5
-1.556, -1.532e-5
-1.557, -1.532e-5
-1.558, -1.532e-5
-1.559, -1.533e-5
-1.560, -1.533e-5
-1.561, -1.533e-5
-1.562, -1.533e-5
-1.563, -1.533e-5
-1.564, -1.533e-5
-1.565, -1.534e-5
-1.566, -1.533e-5
-1.567, -1.534e-5
-1.568, -1.534e-5
-1.569, -1.534e-5
-1.570, -1.534e-5
-1.571, -1.534e-5
-1.572, -1.535e-5
-1.573, -1.535e-5
-1.574, -1.534e-5
-1.575, -1.535e-5
-1.576, -1.535e-5
-1.577, -1.535e-5
-1.578, -1.535e-5
-1.579, -1.536e-5
-1.580, -1.536e-5
-1.581, -1.536e-5
-1.582, -1.536e-5
-1.583, -1.536e-5
-1.584, -1.537e-5
-1.585, -1.537e-5
-1.586, -1.537e-5
-1.587, -1.537e-5
-1.588, -1.537e-5
-1.589, -1.537e-5
-1.590, -1.537e-5
-1.591, -1.538e-5
-1.592, -1.538e-5
-1.593, -1.538e-5
-1.594, -1.538e-5
-1.595, -1.539e-5
-1.596, -1.539e-5
-1.597, -1.539e-5
-1.598, -1.539e-5
-1.599, -1.540e-5
-1.600, -1.539e-5
-1.601, -1.540e-5
-1.602, -1.540e-5
-1.603, -1.540e-5
-1.604, -1.541e-5
-1.605, -1.541e-5
-1.606, -1.541e-5
-1.607, -1.541e-5
-1.608, -1.541e-5
-1.609, -1.542e-5
-1.610, -1.542e-5
-1.611, -1.542e-5
-1.612, -1.543e-5
-1.613, -1.543e-5
-1.614, -1.543e-5
-1.615, -1.543e-5
-1.616, -1.543e-5
-1.617, -1.543e-5
-1.618, -1.543e-5
-1.619, -1.544e-5
-1.620, -1.544e-5
-1.621, -1.544e-5
-1.622, -1.544e-5
-1.623, -1.545e-5
-1.624, -1.545e-5
-1.625, -1.545e-5
-1.626, -1.545e-5
-1.627, -1.545e-5
-1.628, -1.545e-5
-1.629, -1.546e-5
-1.630, -1.546e-5
-1.631, -1.546e-5
-1.632, -1.546e-5
-1.633, -1.546e-5
-1.634, -1.547e-5
-1.635, -1.547e-5
-1.636, -1.547e-5
-1.637, -1.547e-5
-1.638, -1.547e-5
-1.639, -1.548e-5
-1.640, -1.548e-5
-1.641, -1.548e-5
-1.642, -1.548e-5
-1.643, -1.548e-5
-1.644, -1.549e-5
-1.645, -1.549e-5
-1.646, -1.549e-5
-1.647, -1.549e-5
-1.648, -1.550e-5
-1.649, -1.550e-5
-1.650, -1.550e-5
-1.651, -1.550e-5
-1.652, -1.550e-5
-1.653, -1.551e-5
-1.654, -1.551e-5
-1.655, -1.551e-5
-1.656, -1.551e-5
-1.657, -1.551e-5
-1.658, -1.551e-5
-1.659, -1.552e-5
-1.660, -1.552e-5
-1.661, -1.552e-5
-1.662, -1.552e-5
-1.663, -1.553e-5
-1.664, -1.553e-5
-1.665, -1.553e-5
-1.666, -1.553e-5
-1.667, -1.553e-5
-1.668, -1.554e-5
-1.669, -1.554e-5
-1.670, -1.554e-5
-1.671, -1.554e-5
-1.672, -1.555e-5
-1.673, -1.555e-5
-1.674, -1.555e-5
-1.675, -1.555e-5
-1.676, -1.555e-5
-1.677, -1.555e-5
-1.678, -1.556e-5
-1.679, -1.556e-5
-1.680, -1.556e-5
-1.681, -1.557e-5
-1.682, -1.557e-5
-1.683, -1.557e-5
-1.684, -1.557e-5
-1.685, -1.557e-5
-1.686, -1.557e-5
-1.687, -1.558e-5
-1.688, -1.558e-5
-1.689, -1.558e-5
-1.690, -1.558e-5
-1.691, -1.559e-5
-1.692, -1.559e-5
-1.693, -1.559e-5
-1.694, -1.560e-5
-1.695, -1.560e-5
-1.696, -1.560e-5
-1.697, -1.560e-5
-1.698, -1.561e-5
-1.699, -1.561e-5
-1.700, -1.544e-5
-1.699, -1.536e-5
-1.698, -1.532e-5
-1.697, -1.529e-5
-1.696, -1.526e-5
-1.695, -1.524e-5
-1.694, -1.521e-5
-1.693, -1.520e-5
-1.692, -1.517e-5
-1.691, -1.516e-5
-1.690, -1.514e-5
-1.689, -1.512e-5
-1.688, -1.511e-5
-1.687, -1.509e-5
-1.686, -1.508e-5
-1.685, -1.507e-5
-1.684, -1.505e-5
-1.683, -1.504e-5
-1.682, -1.503e-5
-1.681, -1.501e-5
-1.680, -1.500e-5
-1.679, -1.499e-5
-1.678, -1.498e-5
-1.677, -1.497e-5
-1.676, -1.496e-5
-1.675, -1.495e-5
-1.674, -1.494e-5
-1.673, -1.493e-5
-1.672, -1.492e-5
-1.671, -1.491e-5
-1.670, -1.490e-5
-1.669, -1.489e-5
-1.668, -1.488e-5
-1.667, -1.487e-5
-1.666, -1.486e-5
-1.665, -1.485e-5
-1.664, -1.484e-5
-1.663, -1.484e-5
-1.662, -1.483e-5
-1.661, -1.482e-5
-1.660, -1.481e-5
-1.659, -1.481e-5
-1.658, -1.480e-5
-1.657, -1.479e-5
-1.656, -1.478e-5
-1.655, -1.477e-5
-1.654, -1.477e-5
-1.653, -1.476e-5
-1.652, -1.475e-5
-1.651, -1.475e-5
-1.650, -1.474e-5
-1.649, -1.473e-5
-1.648, -1.473e-5
-1.647, -1.472e-5
-1.646, -1.471e-5
-1.645, -1.471e-5
-1.644, -1.470e-5
-1.643, -1.469e-5
-1.642, -1.469e-5
-1.641, -1.468e-5
-1.640, -1.467e-5
-1.639, -1.468e-5
-1.638, -1.467e-5
-1.637, -1.466e-5
-1.636, -1.465e-5
-1.635, -1.464e-5
-1.634, -1.464e-5
-1.633, -1.464e-5
-1.632, -1.463e-5
-1.631, -1.462e-5
-1.630, -1.462e-5
-1.629, -1.461e-5
-1.628, -1.461e-5
-1.627, -1.460e-5
-1.626, -1.460e-5
-1.625, -1.459e-5
-1.624, -1.459e-5
-1.623, -1.458e-5
-1.622, -1.458e-5
-1.621, -1.457e-5
-1.620, -1.457e-5
-1.619, -1.456e-5
-1.618, -1.456e-5
-1.617, -1.455e-5
-1.616, -1.455e-5
-1.615, -1.454e-5
-1.614, -1.454e-5
-1.613, -1.453e-5
-1.612, -1.453e-5
-1.611, -1.452e-5
-1.610, -1.452e-5
-1.609, -1.451e-5
-1.608, -1.451e-5
-1.607, -1.450e-5
-1.606, -1.450e-5
-1.605, -1.450e-5
-1.604, -1.449e-5
-1.603, -1.449e-5
-1.602, -1.448e-5
-1.601, -1.448e-5
-1.600, -1.448e-5
-1.599, -1.447e-5
-1.598, -1.447e-5
-1.597, -1.446e-5
-1.596, -1.446e-5
-1.595, -1.445e-5
-1.594, -1.445e-5
-1.593, -1.445e-5
-1.592, -1.444e-5
-1.591, -1.444e-5
-1.590, -1.444e-5
-1.589, -1.443e-5
-1.588, -1.443e-5
-1.587, -1.442e-5
-1.586, -1.442e-5
-1.585, -1.442e-5
-1.584, -1.441e-5
-1.583, -1.441e-5
-1.582, -1.441e-5
-1.581, -1.440e-5
-1.580, -1.440e-5
-1.579, -1.439e-5
-1.578, -1.439e-5
-1.577, -1.439e-5
-1.576, -1.438e-5
-1.575, -1.438e-5
-1.574, -1.438e-5
-1.573, -1.437e-5
-1.572, -1.437e-5
-1.571, -1.437e-5
-1.570, -1.437e-5
-1.569, -1.436e-5
-1.568, -1.436e-5
-1.567, -1.435e-5
-1.566, -1.435e-5
-1.565, -1.435e-5
-1.564, -1.435e-5
-1.563, -1.434e-5
-1.562, -1.434e-5
-1.561, -1.434e-5
-1.560, -1.433e-5
-1.559, -1.433e-5
-1.558, -1.433e-5
-1.557, -1.432e-5
-1.556, -1.432e-5
-1.555, -1.432e-5
-1.554, -1.432e-5
-1.553, -1.432e-5
-1.552, -1.431e-5
-1.551, -1.431e-5
-1.550, -1.431e-5
-1.549, -1.431e-5
-1.548, -1.430e-5
-1.547, -1.430e-5
-1.546, -1.430e-5
-1.545, -1.429e-5
-1.544, -1.429e-5
-1.543, -1.429e-5
-1.542, -1.429e-5
-1.541, -1.428e-5
-1.540, -1.428e-5
-1.539, -1.428e-5
-1.538, -1.428e-5
-1.537, -1.427e-5
-1.536, -1.427e-5
-1.535, -1.427e-5
-1.534, -1.426e-5
-1.533, -1.427e-5
-1.532, -1.426e-5
-1.531, -1.426e-5
-1.530, -1.426e-5
-1.529, -1.425e-5
-1.528, -1.425e-5
-1.527, -1.425e-5
-1.526, -1.425e-5
-1.525, -1.425e-5
-1.524, -1.424e-5
-1.523, -1.424e-5
-1.522, -1.424e-5
-1.521, -1.424e-5
-1.520, -1.423e-5
-1.519, -1.423e-5
-1.518, -1.423e-5
-1.517, -1.423e-5
-1.516, -1.423e-5
-1.515, -1.422e-5
-1.514, -1.422e-5
-1.513, -1.422e-5
-1.512, -1.422e-5
-1.511, -1.421e-5
-1.510, -1.421e-5
-1.509, -1.421e-5
-1.508, -1.421e-5
-1.507, -1.421e-5
-1.506, -1.420e-5
-1.505, -1.420e-5
-1.504, -1.420e-5
-1.503, -1.420e-5
-1.502, -1.420e-5
-1.501, -1.419e-5
-1.500, -1.419e-5
-1.499, -1.419e-5
-1.498, -1.419e-5
-1.497, -1.418e-5
-1.496, -1.418e-5
-1.495, -1.418e-5
-1.494, -1.418e-5
-1.493, -1.418e-5
-1.492, -1.418e-5
-1.491, -1.417e-5
-1.490, -1.417e-5
-1.489, -1.416e-5
-1.488, -1.416e-5
-1.487, -1.416e-5
-1.486, -1.416e-5
-1.485, -1.416e-5
-1.484, -1.416e-5
-1.483, -1.415e-5
-1.482, -1.415e-5
-1.481, -1.415e-5
-1.480, -1.415e-5
-1.479, -1.415e-5
-1.478, -1.415e-5
-1.477, -1.414e-5
-1.476, -1.414e-5
-1.475, -1.414e-5
-1.474, -1.414e-5
-1.473, -1.413e-5
-1.472, -1.413e-5
-1.471, -1.413e-5
-1.470, -1.413e-5
-1.469, -1.413e-5
-1.468, -1.412e-5
-1.467, -1.412e-5
-1.466, -1.412e-5
-1.465, -1.412e-5
-1.464, -1.412e-5
-1.463, -1.411e-5
-1.462, -1.411e-5
-1.461, -1.411e-5
-1.460, -1.411e-5
-1.459, -1.410e-5
-1.458, -1.411e-5
-1.457, -1.410e-5
-1.456, -1.410e-5
-1.455, -1.410e-5
-1.454, -1.410e-5
-1.453, -1.410e-5
-1.452, -1.409e-5
-1.451, -1.409e-5
-1.450, -1.409e-5
-1.449, -1.409e-5
-1.448, -1.408e-5
-1.447, -1.409e-5
-1.446, -1.408e-5
-1.445, -1.408e-5
-1.444, -1.408e-5
-1.443, -1.407e-5
-1.442, -1.407e-5
-1.441, -1.407e-5
-1.440, -1.407e-5
-1.439, -1.407e-5
-1.438, -1.407e-5
-1.437, -1.406e-5
-1.436, -1.406e-5
-1.435, -1.406e-5
-1.434, -1.407e-5
-1.433, -1.406e-5
-1.432, -1.405e-5
-1.431, -1.405e-5
-1.430, -1.405e-5
-1.429, -1.405e-5
-1.428, -1.405e-5
-1.427, -1.405e-5
-1.426, -1.404e-5
-1.425, -1.404e-5
-1.424, -1.404e-5
-1.423, -1.404e-5
-1.422, -1.403e-5
-1.421, -1.404e-5
-1.420, -1.403e-5
-1.419, -1.403e-5
-1.418, -1.403e-5
-1.417, -1.402e-5
-1.416, -1.402e-5
-1.415, -1.402e-5
-1.414, -1.402e-5
-1.413, -1.402e-5
-1.412, -1.402e-5
-1.411, -1.401e-5
-1.410, -1.401e-5
-1.409, -1.401e-5
-1.408, -1.400e-5
-1.407, -1.401e-5
-1.406, -1.400e-5
-1.405, -1.400e-5
-1.404, -1.400e-5
-1.403, -1.400e-5
-1.402, -1.400e-5
-1.401, -1.400e-5
-1.400, -1.399e-5
-1.399, -1.399e-5
-1.398, -1.399e-5
-1.397, -1.399e-5
-1.396, -1.399e-5
-1.395, -1.399e-5
-1.394, -1.399e-5
-1.393, -1.398e-5
-1.392, -1.398e-5
-1.391, -1.398e-5
-1.390, -1.398e-5
-1.389, -1.398e-5
-1.388, -1.397e-5
-1.387, -1.397e-5
-1.386, -1.397e-5
-1.385, -1.397e-5
-1.384, -1.397e-5
-1.383, -1.397e-5
-1.382, -1.397e-5
-1.381, -1.396e-5
-1.380, -1.396e-5
-1.379, -1.396e-5
-1.378, -1.396e-5
-1.377, -1.395e-5
-1.376, -1.395e-5
-1.375, -1.395e-5
-1.374, -1.395e-5
-1.373, -1.395e-5
-1.372, -1.395e-5
-1.371, -1.394e-5
-1.370, -1.395e-5
-1.369, -1.394e-5
-1.368, -1.394e-5
-1.367, -1.394e-5
-1.366, -1.393e-5
-1.365, -1.394e-5
-1.364, -1.393e-5
-1.363, -1.393e-5
-1.362, -1.393e-5
-1.361, -1.393e-5
-1.360, -1.392e-5
-1.359, -1.392e-5
-1.358, -1.392e-5
-1.357, -1.392e-5
-1.356, -1.392e-5
-1.355, -1.391e-5
-1.354, -1.391e-5
-1.353, -1.391e-5
-1.352, -1.391e-5
-1.351, -1.391e-5
-1.350, -1.391e-5
-1.349, -1.391e-5
-1.348, -1.390e-5
-1.347, -1.390e-5
-1.346, -1.390e-5
-1.345, -1.390e-5
-1.344, -1.390e-5
-1.343, -1.389e-5
-1.342, -1.389e-5
-1.341, -1.389e-5
-1.340, -1.389e-5
-1.339, -1.389e-5
-1.338, -1.389e-5
-1.337, -1.388e-5
-1.336, -1.388e-5
-1.335, -1.388e-5
-1.334, -1.388e-5
-1.333, -1.388e-5
-1.332, -1.387e-5
-1.331, -1.387e-5
-1.330, -1.387e-5
-1.329, -1.387e-5
-1.328, -1.387e-5
-1.327, -1.387e-5
-1.326, -1.386e-5
-1.325, -1.386e-5
-1.324, -1.386e-5
-1.323, -1.386e-5
-1.322, -1.386e-5
-1.321, -1.385e-5
-1.320, -1.385e-5
-1.319, -1.385e-5
-1.318, -1.385e-5
-1.317, -1.385e-5
-1.316, -1.384e-5
-1.315, -1.384e-5
-1.314, -1.384e-5
-1.313, -1.384e-5
-1.312, -1.384e-5
-1.311, -1.384e-5
-1.310, -1.383e-5
-1.309, -1.383e-5
-1.308, -1.383e-5
-1.307, -1.383e-5
-1.306, -1.382e-5
-1.305, -1.382e-5
-1.304, -1.382e-5
-1.303, -1.382e-5
-1.302, -1.382e-5
-1.301, -1.382e-5
-1.300, -1.382e-5
-1.299, -1.381e-5
-1.298, -1.381e-5
-1.297, -1.381e-5
-1.296, -1.381e-5
-1.295, -1.381e-5
-1.294, -1.380e-5
-1.293, -1.381e-5
-1.292, -1.380e-5
-1.291, -1.380e-5
-1.290, -1.380e-5
-1.289, -1.380e-5
-1.288, -1.379e-5
-1.287, -1.379e-5
-1.286, -1.379e-5
-1.285, -1.379e-5
-1.284, -1.379e-5
-1.283, -1.378e-5
-1.282, -1.378e-5
-1.281, -1.378e-5
-1.280, -1.378e-5
-1.279, -1.378e-5
-1.278, -1.377e-5
-1.277, -1.377e-5
-1.276, -1.377e-5
-1.275, -1.377e-5
-1.274, -1.377e-5
-1.273, -1.376e-5
-1.272, -1.376e-5
-1.271, -1.376e-5
-1.270, -1.376e-5
-1.269, -1.376e-5
-1.268, -1.376e-5
-1.267, -1.375e-5
-1.266, -1.375e-5
-1.265, -1.375e-5
-1.264, -1.375e-5
-1.263, -1.374e-5
-1.262, -1.374e-5
-1.261, -1.374e-5
-1.260, -1.374e-5
-1.259, -1.374e-5
-1.258, -1.374e-5
-1.257, -1.373e-5
-1.256, -1.373e-5
-1.255, -1.373e-5
-1.254, -1.373e-5
-1.253, -1.373e-5
-1.252, -1.372e-5
-1.251, -1.372e-5
-1.250, -1.372e-5
-1.249, -1.372e-5
-1.248, -1.372e-5
-1.247, -1.372e-5
-1.246, -1.371e-5
-1.245, -1.371e-5
-1.244, -1.371e-5
-1.243, -1.371e-5
-1.242, -1.371e-5
-1.241, -1.370e-5
-1.240, -1.371e-5
-1.239, -1.370e-5
-1.238, -1.370e-5
-1.237, -1.370e-5
-1.236, -1.369e-5
-1.235, -1.369e-5
-1.234, -1.369e-5
-1.233, -1.369e-5
-1.232, -1.369e-5
-1.231, -1.368e-5
-1.230, -1.368e-5
-1.229, -1.369e-5
-1.228, -1.368e-5
-1.227, -1.368e-5
-1.226, -1.368e-5
-1.225, -1.367e-5
-1.224, -1.367e-5
-1.223, -1.367e-5
-1.222, -1.367e-5
-1.221, -1.367e-5
-1.220, -1.366e-5
-1.219, -1.366e-5
-1.218, -1.366e-5
-1.217, -1.366e-5
-1.216, -1.365e-5
-1.215, -1.365e-5
-1.214, -1.365e-5
-1.213, -1.365e-5
-1.212, -1.364e-5
-1.211, -1.364e-5
-1.210, -1.364e-5
-1.209, -1.364e-5
-1.208, -1.363e-5
-1.207, -1.363e-5
-1.206, -1.363e-5
-1.205, -1.363e-5
-1.204, -1.362e-5
-1.203, -1.362e-5
-1.202, -1.362e-5
-1.201, -1.362e-5
-1.200, -1.362e-5
-1.199, -1.361e-5
-1.198, -1.361e-5
-1.197, -1.361e-5
-1.196, -1.361e-5
-1.195, -1.360e-5
-1.194, -1.360e-5
-1.193, -1.360e-5
-1.192, -1.359e-5
-1.191, -1.360e-5
-1.190, -1.359e-5
-1.189, -1.359e-5
-1.188, -1.358e-5
-1.187, -1.358e-5
-1.186, -1.358e-5
-1.185, -1.357e-5
-1.184, -1.357e-5
-1.183, -1.357e-5
-1.182, -1.356e-5
-1.181, -1.356e-5
-1.180, -1.356e-5
-1.179, -1.355e-5
-1.178, -1.355e-5
-1.177, -1.355e-5
-1.176, -1.354e-5
-1.175, -1.354e-5
-1.174, -1.354e-5
-1.173, -1.353e-5
-1.172, -1.353e-5
-1.171, -1.353e-5
-1.170, -1.352e-5
-1.169, -1.352e-5
-1.168, -1.351e-5
-1.167, -1.351e-5
-1.166, -1.351e-5
-1.165, -1.351e-5
-1.164, -1.350e-5
-1.163, -1.349e-5
-1.162, -1.349e-5
-1.161, -1.349e-5
-1.160, -1.348e-5
-1.159, -1.348e-5
-1.158, -1.347e-5
-1.157, -1.347e-5
-1.156, -1.346e-5
-1.155, -1.346e-5
-1.154, -1.345e-5
-1.153, -1.344e-5
-1.152, -1.343e-5
-1.151, -1.343e-5
-1.150, -1.343e-5
-1.149, -1.342e-5
-1.148, -1.341e-5
-1.147, -1.341e-5
-1.146, -1.341e-5
-1.145, -1.340e-5
-1.144, -1.339e-5
-1.143, -1.338e-5
-1.142, -1.338e-5
-1.141, -1.337e-5
-1.140, -1.336e-5
-1.139, -1.336e-5
-1.138, -1.335e-5
-1.137, -1.334e-5
-1.136, -1.333e-5
-1.135, -1.332e-5
-1.134, -1.332e-5
-1.133, -1.331e-5
-1.132, -1.330e-5
-1.131, -1.329e-5
-1.130, -1.328e-5
-1.129, -1.327e-5
-1.128, -1.326e-5
-1.127, -1.325e-5
-1.126, -1.324e-5
-1.125, -1.323e-5
-1.124, -1.322e-5
-1.123, -1.321e-5
-1.122, -1.320e-5
-1.121, -1.319e-5
-1.120, -1.318e-5
-1.119, -1.317e-5
-1.118, -1.316e-5
-1.117, -1.314e-5
-1.116, -1.313e-5
-1.115, -1.312e-5
-1.114, -1.311e-5
-1.113, -1.309e-5
-1.112, -1.307e-5
-1.111, -1.306e-5
-1.110, -1.305e-5
-1.109, -1.303e-5
-1.108, -1.301e-5
-1.107, -1.300e-5
-1.106, -1.298e-5
-1.105, -1.296e-5
-1.104, -1.294e-5
-1.103, -1.293e-5
-1.102, -1.290e-5
-1.101, -1.288e-5
-1.100, -1.286e-5
-1.099, -1.284e-5
-1.098, -1.282e-5
-1.097, -1.280e-5
-1.096, -1.278e-5
-1.095, -1.276e-5
-1.094, -1.273e-5
-1.093, -1.271e-5
-1.092, -1.268e-5
-1.091, -1.265e-5
-1.090, -1.263e-5
-1.089, -1.260e-5
-1.088, -1.258e-5
-1.087, -1.255e-5
-1.086, -1.252e-5
-1.085, -1.249e-5
-1.084, -1.245e-5
-1.083, -1.242e-5
-1.082, -1.239e-5
-1.081, -1.235e-5
-1.080, -1.231e-5
-1.079, -1.228e-5
-1.078, -1.224e-5
-1.077, -1.220e-5
-1.076, -1.216e-5
-1.075, -1.212e-5
-1.074, -1.208e-5
-1.073, -1.203e-5
-1.072, -1.199e-5
-1.071, -1.194e-5
-1.070, -1.189e-5
-1.069, -1.185e-5
-1.068, -1.178e-5
-1.067, -1.174e-5
-1.066, -1.168e-5
-1.065, -1.162e-5
-1.064, -1.157e-5
-1.063, -1.151e-5
-1.062, -1.145e-5
-1.061, -1.139e-5
-1.060, -1.132e-5
-1.059, -1.125e-5
-1.058, -1.119e-5
-1.057, -1.112e-5
-1.056, -1.104e-5
-1.055, -1.096e-5
-1.054, -1.090e-5
-1.053, -1.081e-5
-1.052, -1.072e-5
-1.051, -1.064e-5
-1.050, -1.054e-5
-1.049, -1.045e-5
-1.048, -1.036e-5
-1.047, -1.027e-5
-1.046, -1.018e-5
-1.045, -1.008e-5
-1.044, -9.976e-6
-1.043, -9.871e-6
-1.042, -9.782e-6
-1.041, -9.662e-6
-1.040, -9.543e-6
-1.039, -9.436e-6
-1.038, -9.320e-6
-1.037, -9.233e-6
-1.036, -9.082e-6
-1.035, -8.955e-6
-1.034, -8.831e-6
-1.033, -8.683e-6
-1.032, -8.558e-6
-1.031, -8.427e-6
-1.030, -8.280e-6
-1.029, -8.140e-6
-1.028, -7.991e-6
-1.027, -7.839e-6
-1.026, -7.696e-6
-1.025, -7.531e-6
-1.024, -7.482e-6
-1.023, -7.259e-6
-1.022, -7.084e-6
-1.021, -6.933e-6
-1.020, -6.754e-6
-1.019, -6.578e-6
-1.018, -6.417e-6
-1.017, -6.222e-6
-1.016, -6.064e-6
-1.015, -5.881e-6
-1.014, -5.712e-6
-1.013, -5.540e-6
-1.012, -5.354e-6
-1.011, -5.210e-6
-1.010, -5.001e-6
-1.009, -4.815e-6
-1.008, -4.634e-6
-1.007, -4.440e-6
-1.006, -4.263e-6
-1.005, -4.099e-6
-1.004, -3.905e-6
-1.003, -3.722e-6
-1.002, -3.543e-6
-1.001, -3.349e-6
-1.000, -3.154e-6
-0.999, -2.945e-6
-0.998, -2.771e-6
-0.997, -2.614e-6
-0.996, -2.415e-6
-0.995, -2.244e-6
-0.994, -2.083e-6
-0.993, -1.908e-6
-0.992, -1.755e-6
-0.991, -1.563e-6
-0.990, -1.403e-6
-0.989, -1.268e-6
-0.988, -1.079e-6
-0.987, -9.053e-7
-0.986, -7.979e-7
-0.985, -6.378e-7
-0.984, -4.788e-7
-0.983, -3.068e-7
-0.982, -1.602e-7
-0.981, -1.967e-8
-0.980, 1.233e-7
-0.979, 2.621e-7
-0.978, 3.753e-7
-0.977, 5.279e-7
-0.976, 6.825e-7
-0.975, 8.163e-7
-0.974, 9.383e-7
-0.973, 1.015e-6
-0.972, 1.166e-6
-0.971, 1.268e-6
-0.970, 1.393e-6
-0.969, 1.520e-6
-0.968, 1.624e-6
-0.967, 1.741e-6
-0.966, 1.853e-6
-0.965, 1.957e-6
-0.964, 2.071e-6
-0.963, 2.169e-6
-0.962, 2.278e-6
-0.961, 2.387e-6
-0.960, 2.439e-6
-0.959, 2.569e-6
-0.958, 2.674e-6
-0.957, 2.755e-6
-0.956, 2.885e-6
-0.955, 2.976e-6
-0.954, 3.085e-6
-0.953, 3.183e-6
-0.952, 3.257e-6
-0.951, 3.379e-6
-0.950, 3.450e-6
-0.949, 3.546e-6
-0.948, 3.674e-6
-0.947, 3.796e-6
-0.946, 3.866e-6
-0.945, 3.971e-6
-0.944, 4.060e-6
-0.943, 4.165e-6
-0.942, 4.251e-6
-0.941, 4.317e-6
-0.940, 4.424e-6
-0.939, 4.524e-6
-0.938, 4.604e-6
-0.937, 4.714e-6
-0.936, 4.831e-6
-0.935, 4.881e-6
-0.934, 4.955e-6
-0.933, 5.055e-6
-0.932, 5.181e-6
-0.931, 5.275e-6
-0.930, 5.366e-6
-0.929, 5.458e-6
-0.928, 5.543e-6
-0.927, 5.630e-6
-0.926, 5.696e-6
-0.925, 5.785e-6
-0.924, 5.886e-6
-0.923, 5.972e-6
-0.922, 6.094e-6
-0.921, 6.160e-6
-0.920, 6.222e-6
-0.919, 6.300e-6
-0.918, 6.366e-6
-0.917, 6.430e-6
-0.916, 6.501e-6
-0.915, 6.585e-6
-0.914, 6.640e-6
-0.913, 6.684e-6
-0.912, 6.760e-6
-0.911, 6.808e-6
-0.910, 6.866e-6
-0.909, 6.858e-6
-0.908, 6.936e-6
-0.907, 6.979e-6
-0.906, 7.001e-6
-0.905, 7.063e-6
-0.904, 7.087e-6
-0.903, 7.103e-6
-0.902, 7.137e-6
-0.901, 7.149e-6
-0.900, 7.190e-6
-0.899, 7.221e-6
-0.898, 7.199e-6
-0.897, 7.218e-6
-0.896, 7.290e-6
-0.895, 7.248e-6
-0.894, 7.241e-6
-0.893, 7.220e-6
-0.892, 7.222e-6
-0.891, 7.208e-6
-0.890, 7.184e-6
-0.889, 7.162e-6
-0.888, 7.132e-6
-0.887, 7.113e-6
-0.886, 7.068e-6
-0.885, 7.041e-6
-0.884, 7.006e-6
-0.883, 6.952e-6
-0.882, 6.913e-6
-0.881, 6.887e-6
-0.880, 6.847e-6
-0.879, 6.808e-6
-0.878, 6.755e-6
-0.877, 6.681e-6
-0.876, 6.639e-6
-0.875, 6.593e-6
-0.874, 6.528e-6
-0.873, 6.462e-6
-0.872, 6.417e-6
-0.871, 6.347e-6
-0.870, 6.287e-6
-0.869, 6.221e-6
-0.868, 6.159e-6
-0.867, 6.098e-6
-0.866, 6.023e-6
-0.865, 5.960e-6
-0.864, 5.896e-6
-0.863, 5.827e-6
-0.862, 5.752e-6
-0.861, 5.680e-6
-0.860, 5.617e-6
-0.859, 5.549e-6
-0.858, 5.458e-6
-0.857, 5.398e-6
-0.856, 5.323e-6
-0.855, 5.255e-6
-0.854, 5.185e-6
-0.853, 5.113e-6
-0.852, 5.042e-6
-0.851, 4.972e-6
-0.850, 4.895e-6
-0.849, 4.834e-6
-0.848, 4.759e-6
-0.847, 4.690e-6
-0.846, 4.618e-6
-0.845, 4.560e-6
-0.844, 4.487e-6
-0.843, 4.415e-6
-0.842, 4.347e-6
-0.841, 4.283e-6
-0.840, 4.217e-6
-0.839, 4.150e-6
-0.838, 4.076e-6
-0.837, 4.017e-6
-0.836, 3.946e-6
-0.835, 3.886e-6
-0.834, 3.821e-6
-0.833, 3.759e-6
-0.832, 3.684e-6
-0.831, 3.629e-6
-0.830, 3.568e-6
-0.829, 3.505e-6
-0.828, 3.449e-6
-0.827, 3.390e-6
-0.826, 3.332e-6
-0.825, 3.280e-6
-0.824, 3.223e-6
-0.823, 3.169e-6
-0.822, 3.110e-6
-0.821, 3.055e-6
-0.820, 2.999e-6
-0.819, 2.945e-6
-0.818, 2.895e-6
-0.817, 2.849e-6
-0.816, 2.796e-6
-0.815, 2.747e-6
-0.814, 2.698e-6
-0.813, 2.646e-6
-0.812, 2.602e-6
-0.811, 2.554e-6
-0.810, 2.509e-6
-0.809, 2.463e-6
-0.808, 2.417e-6
-0.807, 2.368e-6
-0.806, 2.325e-6
-0.805, 2.284e-6
-0.804, 2.243e-6
-0.803, 2.202e-6
-0.802, 2.158e-6
-0.801, 2.116e-6
-0.800, 2.078e-6
-0.799, 2.039e-6
-0.798, 2.001e-6
-0.797, 1.962e-6
-0.796, 1.926e-6
-0.795, 1.891e-6
-0.794, 1.859e-6
-0.793, 1.821e-6
-0.792, 1.787e-6
-0.791, 1.749e-6
-0.790, 1.715e-6
-0.789, 1.678e-6
-0.788, 1.643e-6
-0.787, 1.614e-6
-0.786, 1.579e-6
-0.785, 1.549e-6
-0.784, 1.515e-6
-0.783, 1.484e-6
-0.782, 1.455e-6
-0.781, 1.416e-6
-0.780, 1.391e-6
-0.779, 1.361e-6
-0.778, 1.328e-6
-0.777, 1.303e-6
-0.776, 1.273e-6
-0.775, 1.240e-6
-0.774, 1.214e-6
-0.773, 1.184e-6
-0.772, 1.156e-6
-0.771, 1.126e-6
-0.770, 1.098e-6
-0.769, 1.075e-6
-0.768, 1.045e-6
-0.767, 1.019e-6
-0.766, 9.938e-7
-0.765, 9.673e-7
-0.764, 9.442e-7
-0.763, 9.164e-7
-0.762, 8.889e-7
-0.761, 8.639e-7
-0.760, 8.411e-7
-0.759, 8.149e-7
-0.758, 7.871e-7
-0.757, 7.622e-7
-0.756, 7.337e-7
-0.755, 7.080e-7
-0.754, 6.798e-7
-0.753, 6.536e-7
-0.752, 6.272e-7
-0.751, 5.999e-7
-0.750, 5.717e-7
-0.749, 5.437e-7
-0.748, 5.192e-7
-0.747, 4.945e-7
-0.746, 4.682e-7
-0.745, 4.423e-7
-0.744, 4.173e-7
-0.743, 3.961e-7
-0.742, 3.714e-7
-0.741, 3.488e-7
-0.740, 3.285e-7
-0.739, 3.051e-7
-0.738, 2.814e-7
-0.737, 2.655e-7
-0.736, 2.458e-7
-0.735, 2.286e-7
-0.734, 2.124e-7
-0.733, 1.947e-7
-0.732, 1.826e-7
-0.731, 1.680e-7
-0.730, 1.524e-7
-0.729, 1.455e-7
-0.728, 1.369e-7
-0.727, 1.262e-7
-0.726, 1.178e-7
-0.725, 1.075e-7
-0.724, 1.039e-7
-0.723, 9.328e-8
-0.722, 8.509e-8
-0.721, 7.652e-8
-0.720, 6.833e-8
-0.719, 6.151e-8
-0.718, 5.449e-8
-0.717, 4.758e-8
-0.716, 4.095e-8
-0.715, 3.403e-8
-0.714, 2.555e-8
-0.713, 2.078e-8
-0.712, 1.318e-8
-0.711, 8.985e-9
-0.710, 1.286e-9
-0.709, -4.171e-9
-0.708, -9.043e-9
-0.707, -1.518e-8
-0.706, -2.200e-8
-0.705, -2.727e-8
-0.704, -3.886e-8
-0.703, -3.984e-8
-0.702, -4.520e-8
-0.701, -5.280e-8
-0.700, -5.650e-8
-0.699, -6.401e-8
-0.698, -6.976e-8
-0.697, -7.531e-8
-0.696, -7.921e-8
-0.695, -8.642e-8
-0.694, -9.110e-8
-0.693, -9.831e-8
-0.692, -9.675e-8
-0.691, -1.032e-7
-0.690, -1.109e-7
-0.689, -1.157e-7
-0.688, -1.203e-7
-0.687, -1.256e-7
-0.686, -1.314e-7
-0.685, -1.369e-7
-0.684, -1.386e-7
-0.683, -1.445e-7
-0.682, -1.503e-7
-0.681, -1.543e-7
-0.680, -1.585e-7
-0.679, -1.653e-7
-0.678, -1.691e-7
-0.677, -1.743e-7
-0.676, -1.767e-7
-0.675, -1.823e-7
-0.674, -1.860e-7
-0.673, -1.910e-7
-0.672, -1.929e-7
-0.671, -1.987e-7
-0.670, -2.046e-7
-0.669, -2.080e-7
-0.668, -2.080e-7
-0.667, -2.153e-7
-0.666, -2.211e-7
-0.665, -2.231e-7
-0.664, -2.277e-7
-0.663, -2.300e-7
-0.662, -2.352e-7
-0.661, -2.405e-7
-0.660, -2.418e-7
-0.659, -2.452e-7
-0.658, -2.501e-7
-0.657, -2.536e-7
-0.656, -2.567e-7
-0.655, -2.617e-7
-0.654, -2.641e-7
-0.653, -2.715e-7
-0.652, -2.722e-7
-0.651, -2.748e-7
-0.650, -2.821e-7
-0.649, -2.829e-7
-0.648, -2.861e-7
-0.647, -2.890e-7
-0.646, -2.954e-7
-0.645, -2.963e-7
-0.644, -2.986e-7
-0.643, -3.036e-7
-0.642, -3.066e-7
-0.641, -3.086e-7
-0.640, -3.058e-7
-0.639, -3.166e-7
-0.638, -3.193e-7
-0.637, -3.217e-7
-0.636, -3.234e-7
-0.635, -3.286e-7
-0.634, -3.321e-7
-0.633, -3.337e-7
-0.632, -3.346e-7
-0.631, -3.398e-7
-0.630, -3.419e-7
-0.629, -3.433e-7
-0.628, -3.490e-7
-0.627, -3.513e-7
-0.626, -3.539e-7
-0.625, -3.531e-7
-0.624, -3.561e-7
-0.623, -3.597e-7
-0.622, -3.618e-7
-0.621, -3.654e-7
-0.620, -3.669e-7
-0.619, -3.684e-7
-0.618, -3.719e-7
-0.617, -3.723e-7
-0.616, -3.742e-7
-0.615, -3.847e-7
-0.614, -3.833e-7
-0.613, -3.842e-7
-0.612, -3.855e-7
-0.611, -3.870e-7
-0.610, -3.921e-7
-0.609, -3.912e-7
-0.608, -3.932e-7
-0.607, -3.952e-7
-0.606, -3.960e-7
-0.605, -4.008e-7
-0.604, -3.994e-7
-0.603, -4.029e-7
-0.602, -4.106e-7
-0.601, -4.092e-7
-0.600, -4.069e-7
-0.599, -4.118e-7
-0.598, -4.141e-7
-0.597, -4.167e-7
-0.596, -4.167e-7
-0.595, -4.202e-7
-0.594, -4.203e-7
-0.593, -4.207e-7
-0.592, -4.229e-7
-0.591, -4.250e-7
-0.590, -4.281e-7
-0.589, -4.250e-7
-0.588, -4.282e-7
-0.587, -4.333e-7
-0.586, -4.332e-7
-0.585, -4.338e-7
-0.584, -4.352e-7
-0.583, -4.387e-7
-0.582, -4.400e-7
-0.581, -4.427e-7
-0.580, -4.412e-7
-0.579, -4.429e-7
-0.578, -4.458e-7
-0.577, -4.465e-7
-0.576, -4.517e-7
-0.575, -4.495e-7
-0.574, -4.512e-7
-0.573, -4.521e-7
-0.572, -4.516e-7
-0.571, -4.529e-7
-0.570, -4.564e-7
-0.569, -4.553e-7
-0.568, -4.565e-7
-0.567, -4.598e-7
-0.566, -4.591e-7
-0.565, -4.621e-7
-0.564, -4.604e-7
-0.563, -4.619e-7
-0.562, -4.650e-7
-0.561, -4.644e-7
-0.560, -4.649e-7
-0.559, -4.656e-7
-0.558, -4.687e-7
-0.557, -4.700e-7
-0.556, -4.682e-7
-0.555, -4.697e-7
-0.554, -4.708e-7
-0.553, -4.711e-7
-0.552, -4.723e-7
-0.551, -4.784e-7
-0.550, -4.740e-7
-0.549, -4.748e-7
-0.548, -4.753e-7
-0.547, -4.770e-7
-0.546, -4.784e-7
-0.545, -4.789e-7
-0.544, -4.779e-7
-0.543, -4.796e-7
-0.542, -4.804e-7
-0.541, -4.809e-7
-0.540, -4.804e-7
-0.539, -4.812e-7
-0.538, -4.782e-7
-0.537, -4.819e-7
-0.536, -4.812e-7
-0.535, -4.850e-7
-0.534, -4.823e-7
-0.533, -4.859e-7
-0.532, -4.823e-7
-0.531, -4.836e-7
-0.530, -4.867e-7
-0.529, -4.854e-7
-0.528, -4.844e-7
-0.527, -4.879e-7
-0.526, -4.867e-7
-0.525, -4.934e-7
-0.524, -4.862e-7
-0.523, -4.862e-7
-0.522, -4.894e-7
-0.521, -4.884e-7
-0.520, -4.874e-7
-0.519, -4.878e-7
-0.518, -4.885e-7
-0.517, -4.906e-7
-0.516, -4.881e-7
-0.515, -4.897e-7
-0.514, -4.906e-7
-0.513, -4.880e-7
-0.512, -4.859e-7
-0.511, -4.886e-7
-0.510, -4.885e-7
-0.509, -4.893e-7
-0.508, -4.876e-7
-0.507, -4.889e-7
-0.506, -4.914e-7
-0.505, -4.887e-7
-0.504, -4.883e-7
-0.503, -4.880e-7
-0.502, -4.883e-7
-0.501, -4.896e-7
-0.500, -4.906e-7
-0.499, -4.923e-7
-0.498, -4.897e-7
-0.497, -4.892e-7
-0.496, -4.888e-7
-0.495, -4.893e-7
-0.494, -4.884e-7
-0.493, -4.879e-7
-0.492, -4.878e-7
-0.491, -4.874e-7
-0.490, -4.879e-7
-0.489, -4.848e-7
-0.488, -4.868e-7
-0.487, -4.827e-7
-0.486, -4.846e-7
-0.485, -4.867e-7
-0.484, -4.841e-7
-0.483, -4.846e-7
-0.482, -4.861e-7
-0.481, -4.834e-7
-0.480, -4.843e-7
-0.479, -4.826e-7
-0.478, -4.843e-7
-0.477, -4.834e-7
-0.476, -4.819e-7
-0.475, -4.799e-7
-0.474, -4.861e-7
-0.473, -4.830e-7
-0.472, -4.819e-7
-0.471, -4.808e-7
-0.470, -4.805e-7
-0.469, -4.793e-7
-0.468, -4.787e-7
-0.467, -4.785e-7
-0.466, -4.787e-7
-0.465, -4.771e-7
-0.464, -4.761e-7
-0.463, -4.770e-7
-0.462, -4.765e-7
-0.461, -4.770e-7
-0.460, -4.742e-7
-0.459, -4.741e-7
-0.458, -4.749e-7
-0.457, -4.731e-7
-0.456, -4.716e-7
-0.455, -4.717e-7
-0.454, -4.709e-7
-0.453, -4.712e-7
-0.452, -4.683e-7
-0.451, -4.676e-7
-0.450, -4.703e-7
-0.449, -4.657e-7
-0.448, -4.700e-7
-0.447, -4.670e-7
-0.446, -4.645e-7
-0.445, -4.666e-7
-0.444, -4.630e-7
-0.443, -4.628e-7
-0.442, -4.633e-7
-0.441, -4.613e-7
-0.440, -4.586e-7
-0.439, -4.609e-7
-0.438, -4.560e-7
-0.437, -4.587e-7
-0.436, -4.521e-7
-0.435, -4.527e-7
-0.434, -4.556e-7
-0.433, -4.529e-7
-0.432, -4.533e-7
-0.431, -4.519e-7
-0.430, -4.505e-7
-0.429, -4.503e-7
-0.428, -4.459e-7
-0.427, -4.470e-7
-0.426, -4.483e-7
-0.425, -4.463e-7
-0.424, -4.450e-7
-0.423, -4.480e-7
-0.422, -4.438e-7
-0.421, -4.428e-7
-0.420, -4.410e-7
-0.419, -4.398e-7
-0.418, -4.420e-7
-0.417, -4.389e-7
-0.416, -4.350e-7
-0.415, -4.371e-7
-0.414, -4.335e-7
-0.413, -4.356e-7
-0.412, -4.314e-7
-0.411, -4.282e-7
-0.410, -4.485e-7
-0.409, -4.329e-7
-0.408, -4.298e-7
-0.407, -4.272e-7
-0.406, -4.264e-7
-0.405, -4.271e-7
-0.404, -4.216e-7
-0.403, -4.242e-7
-0.402, -4.215e-7
-0.401, -4.209e-7
-0.400, -4.184e-7
-0.399, -4.178e-7
-0.398, -4.136e-7
-0.397, -4.197e-7
-0.396, -4.115e-7
-0.395, -4.126e-7
-0.394, -4.131e-7
-0.393, -4.080e-7
-0.392, -4.068e-7
-0.391, -4.048e-7
-0.390, -4.048e-7
-0.389, -4.061e-7
-0.388, -4.010e-7
-0.387, -3.987e-7
-0.386, -3.996e-7
-0.385, -3.965e-7
-0.384, -3.907e-7
-0.383, -3.927e-7
-0.382, -3.940e-7
-0.381, -3.905e-7
-0.380, -3.864e-7
-0.379, -3.878e-7
-0.378, -3.876e-7
-0.377, -3.858e-7
-0.376, -3.819e-7
-0.375, -3.812e-7
-0.374, -3.805e-7
-0.373, -3.790e-7
-0.372, -3.795e-7
-0.371, -3.782e-7
-0.370, -3.767e-7
-0.369, -3.735e-7
-0.368, -3.729e-7
-0.367, -3.714e-7
-0.366, -3.702e-7
-0.365, -3.676e-7
-0.364, -3.669e-7
-0.363, -3.629e-7
-0.362, -3.648e-7
-0.361, -3.626e-7
-0.360, -3.600e-7
-0.359, -3.598e-7
-0.358, -3.570e-7
-0.357, -3.567e-7
-0.356, -3.534e-7
-0.355, -3.527e-7
-0.354, -3.521e-7
-0.353, -3.470e-7
-0.352, -3.473e-7
-0.351, -3.456e-7
-0.350, -3.451e-7
-0.349, -3.434e-7
-0.348, -3.425e-7
-0.347, -3.392e-7
-0.346, -3.426e-7
-0.345, -3.382e-7
-0.344, -3.346e-7
-0.343, -3.322e-7
-0.342, -3.319e-7
-0.341, -3.319e-7
-0.340, -3.277e-7
-0.339, -3.264e-7
-0.338, -3.265e-7
-0.337, -3.214e-7
-0.336, -3.210e-7
-0.335, -3.218e-7
-0.334, -3.164e-7
-0.333, -3.095e-7
-0.332, -3.114e-7
-0.331, -3.103e-7
-0.330, -3.093e-7
-0.329, -3.074e-7
-0.328, -3.050e-7
-0.327, -3.050e-7
-0.326, -3.031e-7
-0.325, -3.003e-7
-0.324, -2.975e-7
-0.323, -2.960e-7
-0.322, -2.960e-7
-0.321, -2.899e-7
-0.320, -2.947e-7
-0.319, -2.896e-7
-0.318, -2.901e-7
-0.317, -2.868e-7
-0.316, -2.813e-7
-0.315, -2.801e-7
-0.314, -2.805e-7
-0.313, -2.781e-7
-0.312, -2.743e-7
-0.311, -2.752e-7
-0.310, -2.709e-7
-0.309, -2.706e-7
-0.308, -2.648e-7
-0.307, -2.622e-7
-0.306, -2.642e-7
-0.305, -2.610e-7
-0.304, -2.572e-7
-0.303, -2.572e-7
-0.302, -2.554e-7
-0.301, -2.548e-7
-0.300, -2.514e-7
-0.299, -2.504e-7
-0.298, -2.491e-7
-0.297, -2.456e-7
-0.296, -2.431e-7
-0.295, -2.473e-7
-0.294, -2.408e-7
-0.293, -2.400e-7
-0.292, -2.340e-7
-0.291, -2.349e-7
-0.290, -2.331e-7
-0.289, -2.306e-7
-0.288, -2.282e-7
-0.287, -2.265e-7
-0.286, -2.231e-7
-0.285, -2.243e-7
-0.284, -2.185e-7
-0.283, -2.168e-7
-0.282, -2.119e-7
-0.281, -2.122e-7
-0.280, -2.099e-7
-0.279, -2.079e-7
-0.278, -2.077e-7
-0.277, -2.041e-7
-0.276, -2.023e-7
-0.275, -2.025e-7
-0.274, -1.987e-7
-0.273, -1.957e-7
-0.272, -1.942e-7
-0.271, -1.930e-7
-0.270, -1.899e-7
-0.269, -1.948e-7
-0.268, -1.846e-7
-0.267, -1.844e-7
-0.266, -1.836e-7
-0.265, -1.781e-7
-0.264, -1.761e-7
-0.263, -1.767e-7
-0.262, -1.722e-7
-0.261, -1.748e-7
-0.260, -1.665e-7
-0.259, -1.644e-7
-0.258, -1.630e-7
-0.257, -1.609e-7
-0.256, -1.601e-7
-0.255, -1.561e-7
-0.254, -1.537e-7
-0.253, -1.521e-7
-0.252, -1.489e-7
-0.251, -1.453e-7
-0.250, -1.468e-7
-0.249, -1.419e-7
-0.248, -1.404e-7
-0.247, -1.381e-7
-0.246, -1.356e-7
-0.245, -1.339e-7
-0.244, -1.337e-7
-0.243, -1.302e-7
-0.242, -1.287e-7
-0.241, -1.232e-7
-0.240, -1.215e-7
-0.239, -1.195e-7
-0.238, -1.154e-7
-0.237, -1.155e-7
-0.236, -1.119e-7
-0.235, -1.077e-7
-0.234, -1.070e-7
-0.233, -1.021e-7
-0.232, -1.009e-7
-0.231, -9.490e-8
-0.230, -9.305e-8
-0.229, -9.470e-8
-0.228, -8.856e-8
-0.227, -8.476e-8
-0.226, -8.593e-8
-0.225, -8.184e-8
-0.224, -7.921e-8
-0.223, -7.667e-8
-0.222, -7.229e-8
-0.221, -7.278e-8
-0.220, -6.625e-8
-0.219, -6.508e-8
-0.218, -6.927e-8
-0.217, -6.137e-8
-0.216, -5.835e-8
-0.215, -5.494e-8
-0.214, -5.231e-8
-0.213, -4.949e-8
-0.212, -4.578e-8
-0.211, -4.227e-8
-0.210, -4.159e-8
-0.209, -3.760e-8
-0.208, -3.565e-8
-0.207, -3.263e-8
-0.206, -2.941e-8
-0.205, -3.760e-8
-0.204, -2.600e-8
-0.203, -2.181e-8
-0.202, -2.103e-8
-0.201, -1.664e-8
-0.200, -1.323e-8
-0.199, -1.167e-8
-0.198, -1.031e-8
-0.197, -6.120e-9
-0.196, -1.930e-9
-0.195, 7.016e-10
-0.194, 1.969e-9
-0.193, 6.744e-9
-0.192, 4.892e-9
-0.191, 7.621e-9
-0.190, 1.123e-8
-0.189, 1.581e-8
-0.188, 1.727e-8
-0.187, 2.097e-8
-0.186, 2.117e-8
-0.185, 2.750e-8
-0.184, 3.003e-8
-0.183, 3.198e-8
-0.182, 3.413e-8
-0.181, 3.539e-8
-0.180, 4.592e-8
-0.179, 4.563e-8
-0.178, 4.475e-8
-0.177, 4.923e-8
-0.176, 5.401e-8
-0.175, 5.391e-8
-0.174, 5.498e-8
-0.173, 5.615e-8
-0.172, 6.278e-8
-0.171, 6.531e-8
-0.170, 6.453e-8
-0.169, 7.009e-8
-0.168, 7.233e-8
-0.167, 7.067e-8
-0.166, 7.525e-8
-0.165, 7.896e-8
-0.164, 8.402e-8
-0.163, 8.509e-8
-0.162, 8.607e-8
-0.161, 8.958e-8
-0.160, 9.270e-8
-0.159, 9.425e-8
-0.158, 9.630e-8
-0.157, 9.864e-8
-0.156, 1.039e-7
-0.155, 1.053e-7
-0.154, 1.062e-7
-0.153, 1.102e-7
-0.152, 1.146e-7
-0.151, 1.134e-7
-0.150, 1.185e-7
-0.149, 1.181e-7
-0.148, 1.236e-7
-0.147, 1.231e-7
-0.146, 1.238e-7
-0.145, 1.279e-7
-0.144, 1.303e-7
-0.143, 1.323e-7
-0.142, 1.349e-7
-0.141, 1.303e-7
-0.140, 1.385e-7
-0.139, 1.428e-7
-0.138, 1.399e-7
-0.137, 1.439e-7
-0.136, 1.488e-7
-0.135, 1.484e-7
-0.134, 1.511e-7
-0.133, 1.529e-7
-0.132, 1.575e-7
-0.131, 1.574e-7
-0.130, 1.594e-7
-0.129, 1.619e-7
-0.128, 1.712e-7
-0.127, 1.671e-7
-0.126, 1.683e-7
-0.125, 1.686e-7
-0.124, 1.738e-7
-0.123, 1.758e-7
-0.122, 1.754e-7
-0.121, 1.788e-7
-0.120, 1.814e-7
-0.119, 1.818e-7
-0.118, 1.832e-7
-0.117, 1.866e-7
-0.116, 1.876e-7
-0.115, 1.897e-7
-0.114, 1.906e-7
-0.113, 1.934e-7
-0.112, 1.960e-7
-0.111, 1.977e-7
-0.110, 1.991e-7
-0.109, 2.017e-7
-0.108, 2.049e-7
-0.107, 2.075e-7
-0.106, 2.052e-7
-0.105, 2.111e-7
-0.104, 2.121e-7
-0.103, 2.185e-7
-0.102, 2.173e-7
-0.101, 2.173e-7
-0.100, 2.219e-7
-0.099, 2.222e-7
-0.098, 2.233e-7
-0.097, 2.256e-7
-0.096, 2.256e-7
-0.095, 2.279e-7
-0.094, 2.311e-7
-0.093, 2.306e-7
-0.092, 2.359e-7
-0.091, 2.365e-7
-0.090, 2.308e-7
-0.089, 2.376e-7
-0.088, 2.425e-7
-0.087, 2.406e-7
-0.086, 2.425e-7
-0.085, 2.454e-7
-0.084, 2.474e-7
-0.083, 2.474e-7
-0.082, 2.507e-7
-0.081, 2.543e-7
-0.080, 2.549e-7
-0.079, 2.555e-7
-0.078, 2.586e-7
-0.077, 2.636e-7
-0.076, 2.617e-7
-0.075, 2.618e-7
-0.074, 2.645e-7
-0.073, 2.658e-7
-0.072, 2.685e-7
-0.071, 2.677e-7
-0.070, 2.695e-7
-0.069, 2.712e-7
-0.068, 2.731e-7
-0.067, 2.762e-7
-0.066, 2.749e-7
-0.065, 2.779e-7
-0.064, 2.753e-7
-0.063, 2.809e-7
-0.062, 2.818e-7
-0.061, 2.831e-7
-0.060, 2.859e-7
-0.059, 2.873e-7
-0.058, 2.877e-7
-0.057, 2.926e-7
-0.056, 2.933e-7
-0.055, 2.928e-7
-0.054, 2.946e-7
-0.053, 2.968e-7
-0.052, 3.000e-7
-0.051, 3.002e-7
-0.050, 3.004e-7
-0.049, 3.044e-7
-0.048, 3.054e-7
-0.047, 3.060e-7
-0.046, 3.086e-7
-0.045, 3.106e-7
-0.044, 3.124e-7
-0.043, 3.132e-7
-0.042, 3.131e-7
-0.041, 3.181e-7
-0.040, 3.197e-7
-0.039, 3.176e-7
-0.038, 3.204e-7
-0.037, 3.205e-7
-0.036, 3.274e-7
-0.035, 3.282e-7
-0.034, 3.279e-7
-0.033, 3.307e-7
-0.032, 3.325e-7
-0.031, 3.343e-7
-0.030, 3.390e-7
-0.029, 3.372e-7
-0.028, 3.412e-7
-0.027, 3.430e-7
-0.026, 3.488e-7
-0.025, 3.466e-7
-0.024, 3.499e-7
-0.023, 3.478e-7
-0.022, 3.518e-7
-0.021, 3.508e-7
-0.020, 3.561e-7
-0.019, 3.578e-7
-0.018, 3.583e-7
-0.017, 3.615e-7
-0.016, 3.634e-7
-0.015, 3.661e-7
-0.014, 3.659e-7
-0.013, 3.627e-7
-0.012, 3.713e-7
-0.011, 3.736e-7
-0.010, 3.746e-7
-0.009, 3.766e-7
-0.008, 3.806e-7
-0.007, 3.812e-7
-0.006, 3.831e-7
-0.005, 3.845e-7
-0.004, 3.884e-7
-0.003, 3.896e-7
-0.002, 3.929e-7
-0.001, 3.944e-7
-0.000, 3.800e-7
0.001, 3.963e-7
0.002, 3.974e-7
0.003, 4.013e-7
0.004, 4.041e-7
0.005, 4.090e-7
0.006, 4.070e-7
0.007, 4.115e-7
0.008, 4.174e-7
0.009, 4.176e-7
0.010, 4.214e-7
0.011, 4.236e-7
0.012, 4.226e-7
0.013, 4.271e-7
0.014, 4.312e-7
0.015, 4.337e-7
0.016, 4.372e-7
0.017, 4.390e-7
0.018, 4.421e-7
0.019, 4.429e-7
0.020, 4.493e-7
0.021, 4.525e-7
0.022, 4.516e-7
0.023, 4.565e-7
0.024, 4.592e-7
0.025, 4.670e-7
0.026, 4.681e-7
0.027, 4.689e-7
0.028, 4.728e-7
0.029, 4.743e-7
0.030, 4.769e-7
0.031, 4.808e-7
0.032, 4.847e-7
0.033, 4.860e-7
0.034, 4.896e-7
0.035, 4.909e-7
0.036, 4.960e-7
0.037, 4.987e-7
0.038, 4.959e-7
0.039, 5.042e-7
0.040, 5.070e-7
0.041, 5.104e-7
0.042, 5.118e-7
0.043, 5.150e-7
0.044, 5.212e-7
0.045, 5.227e-7
0.046, 5.232e-7
0.047, 5.286e-7
0.048, 5.324e-7
0.049, 5.349e-7
0.050, 5.381e-7
0.051, 5.394e-7
0.052, 5.466e-7
0.053, 5.474e-7
0.054, 5.494e-7
0.055, 5.545e-7
0.056, 5.583e-7
0.057, 5.604e-7
0.058, 5.634e-7
0.059, 5.665e-7
0.060, 5.713e-7
0.061, 5.742e-7
0.062, 5.750e-7
0.063, 5.810e-7
0.064, 5.790e-7
0.065, 5.840e-7
0.066, 5.895e-7
0.067, 5.902e-7
0.068, 5.973e-7
0.069, 5.998e-7
0.070, 6.016e-7
0.071, 6.063e-7
0.072, 6.103e-7
0.073, 6.126e-7
0.074, 6.156e-7
0.075, 6.164e-7
0.076, 6.261e-7
0.077, 6.274e-7
0.078, 6.277e-7
0.079, 6.329e-7
0.080, 6.352e-7
0.081, 6.359e-7
0.082, 6.393e-7
0.083, 6.428e-7
0.084, 6.466e-7
0.085, 6.507e-7
0.086, 6.526e-7
0.087, 6.546e-7
0.088, 6.627e-7
0.089, 6.595e-7
0.090, 6.633e-7
0.091, 6.673e-7
0.092, 6.747e-7
0.093, 6.763e-7
0.094, 6.792e-7
0.095, 6.801e-7
0.096, 6.849e-7
0.097, 6.887e-7
0.098, 6.935e-7
0.099, 6.923e-7
0.100, 6.998e-7
0.101, 7.018e-7
0.102, 7.091e-7
0.103, 7.098e-7
0.104, 7.137e-7
0.105, 7.157e-7
0.106, 7.195e-7
0.107, 7.209e-7
0.108, 7.266e-7
0.109, 7.288e-7
0.110, 7.294e-7
0.111, 7.361e-7
0.112, 7.390e-7
0.113, 7.414e-7
0.114, 7.420e-7
0.115, 7.418e-7
0.116, 7.504e-7
0.117, 7.511e-7
0.118, 7.542e-7
0.119, 7.592e-7
0.120, 7.640e-7
0.121, 7.634e-7
0.122, 7.645e-7
0.123, 7.705e-7
0.124, 7.756e-7
0.125, 7.778e-7
0.126, 7.769e-7
0.127, 7.826e-7
0.128, 7.926e-7
0.129, 7.893e-7
0.130, 7.910e-7
0.131, 7.929e-7
0.132, 7.962e-7
0.133, 8.002e-7
0.134, 7.994e-7
0.135, 8.054e-7
0.136, 8.087e-7
0.137, 8.102e-7
0.138, 8.112e-7
0.139, 8.168e-7
0.140, 8.143e-7
0.141, 8.187e-7
0.142, 8.209e-7
0.143, 8.249e-7
0.144, 8.289e-7
0.145, 8.293e-7
0.146, 8.317e-7
0.147, 8.321e-7
0.148, 8.404e-7
0.149, 8.400e-7
0.150, 8.423e-7
0.151, 8.441e-7
0.152, 8.461e-7
0.153, 8.479e-7
0.154, 8.500e-7
0.155, 8.520e-7
0.156, 8.579e-7
0.157, 8.589e-7
0.158, 8.593e-7
0.159, 8.640e-7
0.160, 8.624e-7
0.161, 8.688e-7
0.162, 8.696e-7
0.163, 8.699e-7
0.164, 8.771e-7
0.165, 8.777e-7
0.166, 8.714e-7
0.167, 8.798e-7
0.168, 8.828e-7
0.169, 8.841e-7
0.170, 8.851e-7
0.171, 8.879e-7
0.172, 8.908e-7
0.173, 8.930e-7
0.174, 8.955e-7
0.175, 8.981e-7
0.176, 8.998e-7
0.177, 9.026e-7
0.178, 9.043e-7
0.179, 9.133e-7
0.180, 9.094e-7
0.181, 9.122e-7
0.182, 9.120e-7
0.183, 9.171e-7
0.184, 9.184e-7
0.185, 9.190e-7
0.186, 9.211e-7
0.187, 9.239e-7
0.188, 9.270e-7
0.189, 9.292e-7
0.190, 9.294e-7
0.191, 9.338e-7
0.192, 9.294e-7
0.193, 9.353e-7
0.194, 9.379e-7
0.195, 9.394e-7
0.196, 9.440e-7
0.197, 9.477e-7
0.198, 9.437e-7
0.199, 9.512e-7
0.200, 9.534e-7
0.201, 9.539e-7
0.202, 9.554e-7
0.203, 9.566e-7
0.204, 9.519e-7
0.205, 9.571e-7
0.206, 9.622e-7
0.207, 9.660e-7
0.208, 9.691e-7
0.209, 9.713e-7
0.210, 9.732e-7
0.211, 9.756e-7
0.212, 9.809e-7
0.213, 9.815e-7
0.214, 9.810e-7
0.215, 9.865e-7
0.216, 9.925e-7
0.217, 9.880e-7
0.218, 9.917e-7
0.219, 9.964e-7
0.220, 1.002e-6
0.221, 1.003e-6
0.222, 1.003e-6
0.223, 1.010e-6
0.224, 1.011e-6
0.225, 1.013e-6
0.226, 1.018e-6
0.227, 1.019e-6
0.228, 1.024e-6
0.229, 1.025e-6
0.230, 1.034e-6
0.231, 1.035e-6
0.232, 1.037e-6
0.233, 1.040e-6
0.234, 1.043e-6
0.235, 1.045e-6
0.236, 1.050e-6
0.237, 1.053e-6
0.238, 1.056e-6
0.239, 1.059e-6
0.240, 1.063e-6
0.241, 1.065e-6
0.242, 1.071e-6
0.243, 1.067e-6
0.244, 1.077e-6
0.245, 1.082e-6
0.246, 1.083e-6
0.247, 1.088e-6
0.248, 1.091e-6
0.249, 1.093e-6
0.250, 1.099e-6
0.251, 1.099e-6
0.252, 1.108e-6
0.253, 1.112e-6
0.254, 1.114e-6
0.255, 1.120e-6
0.256, 1.122e-6
0.257, 1.127e-6
0.258, 1.131e-6
0.259, 1.135e-6
0.260, 1.142e-6
0.261, 1.146e-6
0.262, 1.147e-6
0.263, 1.156e-6
0.264, 1.159e-6
0.265, 1.166e-6
0.266, 1.171e-6
0.267, 1.174e-6
0.268, 1.180e-6
0.269, 1.184e-6
0.270, 1.190e-6
0.271, 1.196e-6
0.272, 1.204e-6
0.273, 1.211e-6
0.274, 1.213e-6
0.275, 1.219e-6
0.276, 1.230e-6
0.277, 1.235e-6
0.278, 1.238e-6
0.279, 1.246e-6
0.280, 1.253e-6
0.281, 1.264e-6
0.282, 1.268e-6
0.283, 1.275e-6
0.284, 1.283e-6
0.285, 1.290e-6
0.286, 1.295e-6
0.287, 1.305e-6
0.288, 1.313e-6
0.289, 1.318e-6
0.290, 1.329e-6
0.291, 1.334e-6
0.292, 1.347e-6
0.293, 1.356e-6
0.294, 1.356e-6
0.295, 1.372e-6
0.296, 1.383e-6
0.297, 1.392e-6
0.298, 1.400e-6
0.299, 1.410e-6
0.300, 1.425e-6
0.301, 1.436e-6
0.302, 1.446e-6
0.303, 1.461e-6
0.304, 1.471e-6
0.305, 1.484e-6
0.306, 1.497e-6
0.307, 1.515e-6
0.308, 1.527e-6
0.309, 1.541e-6
0.310, 1.554e-6
0.311, 1.572e-6
0.312, 1.588e-6
0.313, 1.603e-6
0.314, 1.619e-6
0.315, 1.637e-6
0.316, 1.655e-6
0.317, 1.676e-6
0.318, 1.694e-6
0.319, 1.717e-6
0.320, 1.731e-6
0.321, 1.754e-6
0.322, 1.777e-6
0.323, 1.801e-6
0.324, 1.826e-6
0.325, 1.851e-6
0.326, 1.873e-6
0.327, 1.900e-6
0.328, 1.928e-6
0.329, 1.955e-6
0.330, 1.984e-6
0.331, 2.009e-6
0.332, 2.053e-6
0.333, 2.084e-6
0.334, 2.111e-6
0.335, 2.148e-6
0.336, 2.182e-6
0.337, 2.222e-6
0.338, 2.259e-6
0.339, 2.297e-6
0.340, 2.340e-6
0.341, 2.381e-6
0.342, 2.427e-6
0.343, 2.475e-6
0.344, 2.521e-6
0.345, 2.562e-6
0.346, 2.611e-6
0.347, 2.667e-6
0.348, 2.729e-6
0.349, 2.783e-6
0.350, 2.840e-6
0.351, 2.900e-6
0.352, 2.962e-6
0.353, 3.025e-6
0.354, 3.092e-6
0.355, 3.158e-6
0.356, 3.236e-6
0.357, 3.309e-6
0.358, 3.372e-6
0.359, 3.455e-6
0.360, 3.537e-6
0.361, 3.629e-6
0.362, 3.716e-6
0.363, 3.805e-6
0.364, 3.907e-6
0.365, 4.004e-6
0.366, 4.100e-6
0.367, 4.212e-6
0.368, 4.322e-6
0.369, 4.425e-6
0.370, 4.545e-6
0.371, 4.639e-6
0.372, 4.778e-6
0.373, 4.917e-6
0.374, 5.046e-6
0.375, 5.189e-6
0.376, 5.332e-6
0.377, 5.468e-6
0.378, 5.628e-6
0.379, 5.778e-6
0.380, 5.952e-6
0.381, 6.117e-6
0.382, 6.284e-6
0.383, 6.469e-6
0.384, 6.697e-6
0.385, 6.878e-6
0.386, 7.074e-6
0.387, 7.261e-6
0.388, 7.489e-6
0.389, 7.713e-6
0.390, 7.923e-6
0.391, 8.170e-6
0.392, 8.405e-6
0.393, 8.660e-6
0.394, 8.920e-6
0.395, 9.187e-6
0.396, 9.456e-6
0.397, 9.711e-6
0.398, 1.000e-5
0.399, 1.033e-5
0.400, 1.064e-5
0.401, 1.097e-5
0.402, 1.129e-5
0.403, 1.161e-5
0.404, 1.198e-5
0.405, 1.233e-5
0.406, 1.272e-5
0.407, 1.310e-5
0.408, 1.351e-5
0.409, 1.374e-5
0.410, 1.410e-5
0.411, 1.462e-5
0.412, 1.512e-5
0.413, 1.559e-5
0.414, 1.604e-5
0.415, 1.656e-5
0.416, 1.702e-5
0.417, 1.753e-5
0.418, 1.805e-5
0.419, 1.859e-5
0.420, 1.914e-5
0.421, 1.971e-5
0.422, 2.020e-5
0.423, 2.082e-5
0.424, 2.143e-5
0.425, 2.204e-5
0.426, 2.267e-5
0.427, 2.329e-5
0.428, 2.398e-5
0.429, 2.465e-5
0.430, 2.530e-5
0.431, 2.599e-5
0.432, 2.669e-5
0.433, 2.740e-5
0.434, 2.810e-5
0.435, 2.899e-5
0.436, 2.968e-5
0.437, 3.041e-5
0.438, 3.116e-5
0.439, 3.190e-5
0.440, 3.268e-5
0.441, 3.350e-5
0.442, 3.427e-5
0.443, 3.502e-5
0.444, 3.586e-5
0.445, 3.666e-5
0.446, 3.746e-5
0.447, 3.828e-5
0.448, 3.890e-5
0.449, 3.986e-5
0.450, 4.067e-5
0.451, 4.145e-5
0.452, 4.224e-5
0.453, 4.312e-5
0.454, 4.385e-5
0.455, 4.470e-5
0.456, 4.545e-5
0.457, 4.627e-5
0.458, 4.703e-5
0.459, 4.777e-5
0.460, 4.858e-5
0.461, 4.924e-5
0.462, 4.996e-5
0.463, 5.070e-5
0.464, 5.136e-5
0.465, 5.210e-5
0.466, 5.280e-5
0.467, 5.333e-5
0.468, 5.401e-5
0.469, 5.469e-5
0.470, 5.520e-5
0.471, 5.581e-5
0.472, 5.632e-5
0.473, 5.681e-5
0.474, 5.731e-5
0.475, 5.774e-5
0.476, 5.830e-5
0.477, 5.873e-5
0.478, 5.912e-5
0.479, 5.953e-5
0.480, 5.990e-5
0.481, 6.031e-5
0.482, 6.057e-5
0.483, 6.089e-5
0.484, 6.122e-5
0.485, 6.147e-5
0.486, 6.186e-5
0.487, 6.202e-5
0.488, 6.219e-5
0.489, 6.237e-5
0.490, 6.246e-5
0.491, 6.254e-5
0.492, 6.264e-5
0.493, 6.273e-5
0.494, 6.277e-5
0.495, 6.285e-5
0.496, 6.287e-5
0.497, 6.290e-5
0.498, 6.288e-5
0.499, 6.270e-5
0.500, 6.274e-5
0.501, 6.273e-5
0.502, 6.260e-5
0.503, 6.255e-5
0.504, 6.240e-5
0.505, 6.231e-5
0.506, 6.217e-5
0.507, 6.207e-5
0.508, 6.199e-5
0.509, 6.178e-5
0.510, 6.155e-5
0.511, 6.146e-5
0.512, 6.133e-5
0.513, 6.112e-5
0.514, 6.089e-5
0.515, 6.062e-5
0.516, 6.045e-5
0.517, 6.019e-5
0.518, 6.000e-5
0.519, 5.977e-5
0.520, 5.951e-5
0.521, 5.927e-5
0.522, 5.899e-5
0.523, 5.877e-5
0.524, 5.849e-5
0.525, 5.818e-5
0.526, 5.795e-5
0.527, 5.770e-5
0.528, 5.744e-5
0.529, 5.720e-5
0.530, 5.691e-5
0.531, 5.666e-5
0.532, 5.641e-5
0.533, 5.614e-5
0.534, 5.585e-5
0.535, 5.562e-5
0.536, 5.534e-5
0.537, 5.512e-5
0.538, 5.486e-5
0.539, 5.458e-5
0.540, 5.431e-5
0.541, 5.405e-5
0.542, 5.377e-5
0.543, 5.353e-5
0.544, 5.327e-5
0.545, 5.301e-5
0.546, 5.276e-5
0.547, 5.251e-5
0.548, 5.227e-5
0.549, 5.202e-5
0.550, 5.174e-5
0.551, 5.152e-5
0.552, 5.129e-5
0.553, 5.105e-5
0.554, 5.082e-5
0.555, 5.059e-5
0.556, 5.036e-5
0.557, 5.013e-5
0.558, 4.990e-5
0.559, 4.970e-5
0.560, 4.948e-5
0.561, 4.926e-5
0.562, 4.905e-5
0.563, 4.883e-5
0.564, 4.864e-5
0.565, 4.844e-5
0.566, 4.824e-5
0.567, 4.804e-5
0.568, 4.784e-5
0.569, 4.765e-5
0.570, 4.746e-5
0.571, 4.727e-5
0.572, 4.709e-5
0.573, 4.691e-5
0.574, 4.672e-5
0.575, 4.655e-5
0.576, 4.636e-5
0.577, 4.620e-5
0.578, 4.603e-5
0.579, 4.586e-5
0.580, 4.570e-5
0.581, 4.554e-5
0.582, 4.538e-5
0.583, 4.523e-5
0.584, 4.507e-5
0.585, 4.492e-5
0.586, 4.477e-5
0.587, 4.463e-5
0.588, 4.449e-5
0.589, 4.435e-5
0.590, 4.420e-5
0.591, 4.407e-5
0.592, 4.393e-5
0.593, 4.379e-5
0.594, 4.367e-5
0.595, 4.353e-5
0.596, 4.341e-5
0.597, 4.328e-5
0.598, 4.316e-5
0.599, 4.303e-5
0.600, 4.292e-5
0.601, 4.279e-5
0.602, 4.268e-5
0.603, 4.257e-5
0.604, 4.246e-5
0.605, 4.235e-5
0.606, 4.224e-5
0.607, 4.213e-5
0.608, 4.203e-5
0.609, 4.193e-5
0.610, 4.182e-5
0.611, 4.172e-5
0.612, 4.163e-5
0.613, 4.153e-5
0.614, 4.142e-5
0.615, 4.133e-5
0.616, 4.124e-5
0.617, 4.115e-5
0.618, 4.106e-5
0.619, 4.098e-5
0.620, 4.089e-5
0.621, 4.081e-5
0.622, 4.072e-5
0.623, 4.064e-5
0.624, 4.056e-5
0.625, 4.048e-5
0.626, 4.040e-5
0.627, 4.032e-5
0.628, 4.025e-5
0.629, 4.017e-5
0.630, 4.009e-5
0.631, 4.002e-5
0.632, 3.995e-5
0.633, 3.988e-5
0.634, 3.981e-5
0.635, 3.974e-5
0.636, 3.968e-5
0.637, 3.961e-5
0.638, 3.954e-5
0.639, 3.948e-5
0.640, 3.942e-5
0.641, 3.936e-5
0.642, 3.930e-5
0.643, 3.923e-5
0.644, 3.917e-5
0.645, 3.911e-5
0.646, 3.906e-5
0.647, 3.900e-5
0.648, 3.894e-5
0.649, 3.888e-5
0.650, 3.883e-5
0.651, 3.878e-5
0.652, 3.872e-5
0.653, 3.867e-5
0.654, 3.862e-5
0.655, 3.857e-5
0.656, 3.852e-5
0.657, 3.847e-5
0.658, 3.842e-5
0.659, 3.837e-5
0.660, 3.833e-5
0.661, 3.828e-5
0.662, 3.824e-5
0.663, 3.819e-5
0.664, 3.815e-5
0.665, 3.810e-5
0.666, 3.806e-5
0.667, 3.802e-5
0.668, 3.798e-5
0.669, 3.793e-5
0.670, 3.789e-5
0.671, 3.786e-5
0.672, 3.782e-5
0.673, 3.778e-5
0.674, 3.774e-5
0.675, 3.770e-5
0.676, 3.766e-5
0.677, 3.763e-5
0.678, 3.759e-5
0.679, 3.756e-5
0.680, 3.752e-5
0.681, 3.749e-5
0.682, 3.745e-5
0.683, 3.742e-5
0.684, 3.739e-5
0.685, 3.735e-5
0.686, 3.732e-5
0.687, 3.729e-5
0.688, 3.726e-5
0.689, 3.723e-5
0.690, 3.719e-5
0.691, 3.717e-5
0.692, 3.714e-5
0.693, 3.711e-5
0.694, 3.708e-5
0.695, 3.705e-5
0.696, 3.703e-5
0.697, 3.700e-5
0.698, 3.697e-5
0.699, 3.694e-5
0.700, 3.692e-5
0.701, 3.689e-5
0.702, 3.687e-5
0.703, 3.684e-5
0.704, 3.681e-5
0.705, 3.679e-5
0.706, 3.677e-5
0.707, 3.674e-5
0.708, 3.672e-5
0.709, 3.670e-5
0.710, 3.667e-5
0.711, 3.665e-5
0.712, 3.663e-5
0.713, 3.661e-5
0.714, 3.659e-5
0.715, 3.656e-5
0.716, 3.655e-5
0.717, 3.652e-5
0.718, 3.650e-5
0.719, 3.648e-5
0.720, 3.646e-5
0.721, 3.644e-5
0.722, 3.642e-5
0.723, 3.640e-5
0.724, 3.638e-5
0.725, 3.636e-5
0.726, 3.634e-5
0.727, 3.632e-5
0.728, 3.630e-5
0.729, 3.628e-5
0.730, 3.627e-5
0.731, 3.625e-5
0.732, 3.623e-5
0.733, 3.621e-5
0.734, 3.620e-5
0.735, 3.618e-5
0.736, 3.617e-5
0.737, 3.615e-5
0.738, 3.613e-5
0.739, 3.612e-5
0.740, 3.611e-5
0.741, 3.609e-5
0.742, 3.608e-5
0.743, 3.606e-5
0.744, 3.605e-5
0.745, 3.603e-5
0.746, 3.601e-5
0.747, 3.600e-5
0.748, 3.598e-5
0.749, 3.597e-5
0.750, 3.595e-5
0.751, 3.594e-5
0.752, 3.593e-5
0.753, 3.592e-5
0.754, 3.590e-5
0.755, 3.589e-5
0.756, 3.588e-5
0.757, 3.586e-5
0.758, 3.585e-5
0.759, 3.584e-5
0.760, 3.583e-5
0.761, 3.581e-5
0.762, 3.580e-5
0.763, 3.579e-5
0.764, 3.578e-5
0.765, 3.577e-5
0.766, 3.575e-5
0.767, 3.574e-5
0.768, 3.573e-5
0.769, 3.572e-5
0.770, 3.571e-5
0.771, 3.570e-5
0.772, 3.569e-5
0.773, 3.568e-5
0.774, 3.567e-5
0.775, 3.566e-5
0.776, 3.565e-5
0.777, 3.564e-5
0.778, 3.563e-5
0.779, 3.562e-5
0.780, 3.561e-5
0.781, 3.560e-5
0.782, 3.559e-5
0.783, 3.559e-5
0.784, 3.558e-5
0.785, 3.557e-5
0.786, 3.556e-5
0.787, 3.555e-5
0.788, 3.554e-5
0.789, 3.553e-5
0.790, 3.552e-5
0.791, 3.552e-5
0.792, 3.551e-5
0.793, 3.550e-5
0.794, 3.549e-5
0.795, 3.548e-5
0.796, 3.548e-5
0.797, 3.547e-5
0.798, 3.546e-5
0.799, 3.545e-5
0.800, 3.545e-5
0.801, 3.544e-5
0.802, 3.543e-5
0.803, 3.543e-5
0.804, 3.542e-5
0.805, 3.542e-5
0.806, 3.540e-5
0.807, 3.540e-5
0.808, 3.540e-5
0.809, 3.539e-5
0.810, 3.538e-5
0.811, 3.538e-5
0.812, 3.537e-5
0.813, 3.537e-5
0.814, 3.536e-5
0.815, 3.535e-5
0.816, 3.535e-5
0.817, 3.534e-5
0.818, 3.534e-5
0.819, 3.532e-5
0.820, 3.533e-5
0.821, 3.532e-5
0.822, 3.532e-5
0.823, 3.531e-5
0.824, 3.531e-5
0.825, 3.530e-5
0.826, 3.530e-5
0.827, 3.530e-5
0.828, 3.529e-5
0.829, 3.529e-5
0.830, 3.528e-5
0.831, 3.528e-5
0.832, 3.527e-5
0.833, 3.527e-5
0.834, 3.526e-5
0.835, 3.526e-5
0.836, 3.526e-5
0.837, 3.525e-5
0.838, 3.525e-5
0.839, 3.525e-5
0.840, 3.524e-5
0.841, 3.524e-5
0.842, 3.524e-5
0.843, 3.523e-5
0.844, 3.524e-5
0.845, 3.523e-5
0.846, 3.522e-5
0.847, 3.522e-5
0.848, 3.522e-5
0.849, 3.522e-5
0.850, 3.521e-5
0.851, 3.521e-5
0.852, 3.521e-5
0.853, 3.521e-5
0.854, 3.520e-5
0.855, 3.520e-5
0.856, 3.520e-5
0.857, 3.519e-5
0.858, 3.519e-5
0.859, 3.519e-5
0.860, 3.519e-5
0.861, 3.519e-5
0.862, 3.518e-5
0.863, 3.518e-5
0.864, 3.518e-5
0.865, 3.518e-5
0.866, 3.517e-5
0.867, 3.517e-5
0.868, 3.517e-5
0.869, 3.517e-5
0.870, 3.516e-5
0.871, 3.517e-5
0.872, 3.516e-5
0.873, 3.516e-5
0.874, 3.516e-5
0.875, 3.515e-5
0.876, 3.515e-5
0.877, 3.515e-5
0.878, 3.515e-5
0.879, 3.515e-5
0.880, 3.515e-5
0.881, 3.514e-5
0.882, 3.514e-5
0.883, 3.514e-5
0.884, 3.514e-5
0.885, 3.514e-5
0.886, 3.513e-5
0.887, 3.513e-5
0.888, 3.514e-5
0.889, 3.513e-5
0.890, 3.513e-5
0.891, 3.513e-5
0.892, 3.513e-5
0.893, 3.513e-5
0.894, 3.513e-5
0.895, 3.513e-5
0.896, 3.513e-5
0.897, 3.512e-5
0.898, 3.512e-5
0.899, 3.512e-5
0.900, 3.512e-5
0.901, 3.512e-5
0.902, 3.512e-5
0.903, 3.512e-5
0.904, 3.512e-5
0.905, 3.512e-5
0.906, 3.512e-5
0.907, 3.511e-5
0.908, 3.511e-5
0.909, 3.511e-5
0.910, 3.511e-5
0.911, 3.511e-5
0.912, 3.511e-5
0.913, 3.511e-5
0.914, 3.511e-5
0.915, 3.511e-5
0.916, 3.511e-5
0.917, 3.511e-5
0.918, 3.511e-5
0.919, 3.511e-5
0.920, 3.511e-5
0.921, 3.512e-5
0.922, 3.511e-5
0.923, 3.511e-5
0.924, 3.511e-5
0.925, 3.512e-5
0.926, 3.511e-5
0.927, 3.511e-5
0.928, 3.511e-5
0.929, 3.511e-5
0.930, 3.512e-5
0.931, 3.511e-5
0.932, 3.512e-5
0.933, 3.511e-5
0.934, 3.511e-5
0.935, 3.512e-5
0.936, 3.512e-5
0.937, 3.512e-5
0.938, 3.512e-5
0.939, 3.512e-5
0.940, 3.512e-5
0.941, 3.512e-5
0.942, 3.512e-5
0.943, 3.512e-5
0.944, 3.512e-5
0.945, 3.512e-5
0.946, 3.512e-5
0.947, 3.513e-5
0.948, 3.513e-5
0.949, 3.513e-5
0.950, 3.513e-5
0.951, 3.513e-5
0.952, 3.513e-5
0.953, 3.513e-5
0.954, 3.513e-5
0.955, 3.513e-5
0.956, 3.514e-5
0.957, 3.514e-5
0.958, 3.514e-5
0.959, 3.514e-5
0.960, 3.514e-5
0.961, 3.514e-5
0.962, 3.514e-5
0.963, 3.514e-5
0.964, 3.515e-5
0.965, 3.515e-5
0.966, 3.515e-5
0.967, 3.515e-5
0.968, 3.515e-5
0.969, 3.515e-5
0.970, 3.515e-5
0.971, 3.515e-5
0.972, 3.516e-5
0.973, 3.516e-5
0.974, 3.516e-5
0.975, 3.516e-5
0.976, 3.516e-5
0.977, 3.516e-5
0.978, 3.517e-5
0.979, 3.516e-5
0.980, 3.517e-5
0.981, 3.517e-5
0.982, 3.517e-5
0.983, 3.518e-5
0.984, 3.518e-5
0.985, 3.517e-5
0.986, 3.518e-5
0.987, 3.518e-5
0.988, 3.518e-5
0.989, 3.519e-5
0.990, 3.519e-5
0.991, 3.519e-5
0.992, 3.519e-5
0.993, 3.519e-5
0.994, 3.519e-5
0.995, 3.520e-5
0.996, 3.520e-5
0.997, 3.520e-5
0.998, 3.521e-5
0.999, 3.521e-5
1.000, 3.490e-5
0.999, 3.478e-5
0.998, 3.474e-5
0.997, 3.469e-5
0.996, 3.466e-5
0.995, 3.463e-5
0.994, 3.460e-5
0.993, 3.458e-5
0.992, 3.455e-5
0.991, 3.453e-5
0.990, 3.451e-5
0.989, 3.449e-5
0.988, 3.447e-5
0.987, 3.445e-5
0.986, 3.445e-5
0.985, 3.442e-5
0.984, 3.441e-5
0.983, 3.440e-5
0.982, 3.438e-5
0.981, 3.437e-5
0.980, 3.435e-5
0.979, 3.434e-5
0.978, 3.433e-5
0.977, 3.431e-5
0.976, 3.430e-5
0.975, 3.429e-5
0.974, 3.428e-5
0.973, 3.427e-5
0.972, 3.426e-5
0.971, 3.425e-5
0.970, 3.424e-5
0.969, 3.423e-5
0.968, 3.422e-5
0.967, 3.421e-5
0.966, 3.420e-5
0.965, 3.419e-5
0.964, 3.418e-5
0.963, 3.418e-5
0.962, 3.417e-5
0.961, 3.416e-5
0.960, 3.415e-5
0.959, 3.415e-5
0.958, 3.413e-5
0.957, 3.413e-5
0.956, 3.412e-5
0.955, 3.411e-5
0.954, 3.411e-5
0.953, 3.410e-5
0.952, 3.409e-5
0.951, 3.408e-5
0.950, 3.408e-5
0.949, 3.407e-5
0.948, 3.406e-5
0.947, 3.406e-5
0.946, 3.405e-5
0.945, 3.404e-5
0.944, 3.403e-5
0.943, 3.403e-5
0.942, 3.403e-5
0.941, 3.402e-5
0.940, 3.401e-5
0.939, 3.401e-5
0.938, 3.401e-5
0.937, 3.399e-5
0.936, 3.399e-5
0.935, 3.399e-5
0.934, 3.399e-5
0.933, 3.398e-5
0.932, 3.397e-5
0.931, 3.397e-5
0.930, 3.396e-5
0.929, 3.396e-5
0.928, 3.395e-5
0.927, 3.395e-5
0.926, 3.394e-5
0.925, 3.394e-5
0.924, 3.393e-5
0.923, 3.393e-5
0.922, 3.392e-5
0.921, 3.392e-5
0.920, 3.392e-5
0.919, 3.391e-5
0.918, 3.391e-5
0.917, 3.391e-5
0.916, 3.390e-5
0.915, 3.390e-5
0.914, 3.389e-5
0.913, 3.389e-5
0.912, 3.388e-5
0.911, 3.388e-5
0.910, 3.387e-5
0.909, 3.388e-5
0.908, 3.387e-5
0.907, 3.386e-5
0.906, 3.386e-5
0.905, 3.386e-5
0.904, 3.385e-5
0.903, 3.385e-5
0.902, 3.384e-5
0.901, 3.384e-5
0.900, 3.383e-5
0.899, 3.383e-5
0.898, 3.383e-5
0.897, 3.382e-5
0.896, 3.381e-5
0.895, 3.382e-5
0.894, 3.381e-5
0.893, 3.381e-5
0.892, 3.380e-5
0.891, 3.380e-5
0.890, 3.380e-5
0.889, 3.379e-5
0.888, 3.379e-5
0.887, 3.379e-5
0.886, 3.378e-5
0.885, 3.378e-5
0.884, 3.378e-5
0.883, 3.377e-5
0.882, 3.377e-5
0.881, 3.377e-5
0.880, 3.376e-5
0.879, 3.376e-5
0.878, 3.376e-5
0.877, 3.376e-5
0.876, 3.375e-5
0.875, 3.375e-5
0.874, 3.375e-5
0.873, 3.374e-5
0.872, 3.374e-5
0.871, 3.374e-5
0.870, 3.373e-5
0.869, 3.373e-5
0.868, 3.372e-5
0.867, 3.372e-5
0.866, 3.372e-5
0.865, 3.372e-5
0.864, 3.371e-5
0.863, 3.371e-5
0.862, 3.371e-5
0.861, 3.371e-5
0.860, 3.370e-5
0.859, 3.370e-5
0.858, 3.370e-5
0.857, 3.369e-5
0.856, 3.369e-5
0.855, 3.369e-5
0.854, 3.368e-5
0.853, 3.368e-5
0.852, 3.368e-5
0.851, 3.367e-5
0.850, 3.368e-5
0.849, 3.367e-5
0.848, 3.367e-5
0.847, 3.366e-5
0.846, 3.366e-5
0.845, 3.365e-5
0.844, 3.365e-5
0.843, 3.365e-5
0.842, 3.365e-5
0.841, 3.364e-5
0.840, 3.364e-5
0.839, 3.364e-5
0.838, 3.364e-5
0.837, 3.364e-5
0.836, 3.363e-5
0.835, 3.363e-5
0.834, 3.363e-5
0.833, 3.362e-5
0.832, 3.363e-5
0.831, 3.362e-5
0.830, 3.362e-5
0.829, 3.361e-5
0.828, 3.361e-5
0.827, 3.361e-5
0.826, 3.361e-5
0.825, 3.360e-5
0.824, 3.360e-5
0.823, 3.360e-5
0.822, 3.360e-5
0.821, 3.360e-5
0.820, 3.360e-5
0.819, 3.359e-5
0.818, 3.359e-5
0.817, 3.359e-5
0.816, 3.358e-5
0.815, 3.358e-5
0.814, 3.358e-5
0.813, 3.358e-5
0.812, 3.357e-5
0.811, 3.357e-5
0.810, 3.357e-5
0.809, 3.357e-5
0.808, 3.357e-5
0.807, 3.357e-5
0.806, 3.356e-5
0.805, 3.356e-5
0.804, 3.356e-5
0.803, 3.356e-5
0.802, 3.356e-5
0.801, 3.355e-5
0.800, 3.355e-5
0.799, 3.355e-5
0.798, 3.355e-5
0.797, 3.355e-5
0.796, 3.354e-5
0.795, 3.354e-5
0.794, 3.354e-5
0.793, 3.354e-5
0.792, 3.354e-5
0.791, 3.354e-5
0.790, 3.353e-5
0.789, 3.353e-5
0.788, 3.353e-5
0.787, 3.353e-5
0.786, 3.353e-5
0.785, 3.352e-5
0.784, 3.352e-5
0.783, 3.353e-5
0.782, 3.352e-5
0.781, 3.353e-5
0.780, 3.352e-5
0.779, 3.352e-5
0.778, 3.352e-5
0.777, 3.351e-5
0.776, 3.351e-5
0.775, 3.351e-5
0.774, 3.351e-5
0.773, 3.351e-5
0.772, 3.351e-5
0.771, 3.350e-5
0.770, 3.351e-5
0.769, 3.350e-5
0.768, 3.350e-5
0.767, 3.350e-5
0.766, 3.350e-5
0.765, 3.350e-5
0.764, 3.349e-5
0.763, 3.349e-5
0.762, 3.349e-5
0.761, 3.349e-5
0.760, 3.349e-5
0.759, 3.349e-5
0.758, 3.348e-5
0.757, 3.348e-5
0.756, 3.348e-5
0.755, 3.348e-5
0.754, 3.348e-5
0.753, 3.347e-5
0.752, 3.347e-5
0.751, 3.347e-5
0.750, 3.347e-5
0.749, 3.346e-5
0.748, 3.346e-5
0.747, 3.346e-5
0.746, 3.346e-5
0.745, 3.345e-5
0.744, 3.345e-5
0.743, 3.345e-5
0.742, 3.345e-5
0.741, 3.345e-5
0.740, 3.344e-5
0.739, 3.344e-5
0.738, 3.344e-5
0.737, 3.344e-5
0.736, 3.344e-5
0.735, 3.343e-5
0.734, 3.343e-5
0.733, 3.343e-5
0.732, 3.343e-5
0.731, 3.342e-5
0.730, 3.343e-5
0.729, 3.342e-5
0.728, 3.342e-5
0.727, 3.342e-5
0.726, 3.341e-5
0.725, 3.341e-5
0.724, 3.341e-5
0.723, 3.341e-5
0.722, 3.341e-5
0.721, 3.340e-5
0.720, 3.340e-5
0.719, 3.340e-5
0.718, 3.339e-5
0.717, 3.339e-5
0.716, 3.339e-5
0.715, 3.339e-5
0.714, 3.338e-5
0.713, 3.338e-5
0.712, 3.338e-5
0.711, 3.338e-5
0.710, 3.338e-5
0.709, 3.338e-5
0.708, 3.337e-5
0.707, 3.337e-5
0.706, 3.337e-5
0.705, 3.336e-5
0.704, 3.337e-5
0.703, 3.336e-5
0.702, 3.336e-5
0.701, 3.335e-5
0.700, 3.335e-5
0.699, 3.335e-5
0.698, 3.335e-5
0.697, 3.334e-5
0.696, 3.334e-5
0.695, 3.334e-5
0.694, 3.334e-5
0.693, 3.333e-5
0.692, 3.333e-5
0.691, 3.333e-5
0.690, 3.333e-5
0.689, 3.333e-5
0.688, 3.332e-5
0.687, 3.332e-5
0.686, 3.332e-5
0.685, 3.331e-5
0.684, 3.331e-5
0.683, 3.331e-5
0.682, 3.331e-5
0.681, 3.330e-5
0.680, 3.330e-5
0.679, 3.330e-5
0.678, 3.330e-5
0.677, 3.329e-5
0.676, 3.329e-5
0.675, 3.329e-5
0.674, 3.329e-5
0.673, 3.328e-5
0.672, 3.328e-5
0.671, 3.328e-5
0.670, 3.327e-5
0.669, 3.327e-5
0.668, 3.327e-5
0.667, 3.327e-5
0.666, 3.326e-5
0.665, 3.326e-5
0.664, 3.325e-5
0.663, 3.325e-5
0.662, 3.325e-5
0.661, 3.324e-5
0.660, 3.324e-5
0.659, 3.324e-5
0.658, 3.324e-5
0.657, 3.323e-5
0.656, 3.323e-5
0.655, 3.322e-5
0.654, 3.321e-5
0.653, 3.322e-5
0.652, 3.320e-5
0.651, 3.320e-5
0.650, 3.320e-5
0.649, 3.319e-5
0.648, 3.318e-5
0.647, 3.318e-5
0.646, 3.317e-5
0.645, 3.316e-5
0.644, 3.316e-5
0.643, 3.315e-5
0.642, 3.315e-5
0.641, 3.314e-5
0.640, 3.312e-5
0.639, 3.312e-5
0.638, 3.311e-5
0.637, 3.311e-5
0.636, 3.310e-5
0.635, 3.309e-5
0.634, 3.308e-5
0.633, 3.307e-5
0.632, 3.306e-5
0.631, 3.305e-5
0.630, 3.304e-5
0.629, 3.303e-5
0.628, 3.302e-5
0.627, 3.301e-5
0.626, 3.300e-5
0.625, 3.299e-5
0.624, 3.297e-5
0.623, 3.296e-5
0.622, 3.295e-5
0.621, 3.293e-5
0.620, 3.291e-5
0.619, 3.290e-5
0.618, 3.288e-5
0.617, 3.287e-5
0.616, 3.285e-5
0.615, 3.284e-5
0.614, 3.282e-5
0.613, 3.280e-5
0.612, 3.278e-5
0.611, 3.276e-5
0.610, 3.274e-5
0.609, 3.272e-5
0.608, 3.269e-5
0.607, 3.267e-5
0.606, 3.264e-5
0.605, 3.262e-5
0.604, 3.259e-5
0.603, 3.257e-5
0.602, 3.255e-5
0.601, 3.251e-5
0.600, 3.248e-5
0.599, 3.245e-5
0.598, 3.242e-5
0.597, 3.238e-5
0.596, 3.235e-5
0.595, 3.231e-5
0.594, 3.228e-5
0.593, 3.224e-5
0.592, 3.220e-5
0.591, 3.216e-5
0.590, 3.212e-5
0.589, 3.206e-5
0.588, 3.202e-5
0.587, 3.197e-5
0.586, 3.193e-5
0.585, 3.187e-5
0.584, 3.182e-5
0.583, 3.177e-5
0.582, 3.171e-5
0.581, 3.165e-5
0.580, 3.159e-5
0.579, 3.152e-5
0.578, 3.146e-5
0.577, 3.138e-5
0.576, 3.133e-5
0.575, 3.125e-5
0.574, 3.117e-5
0.573, 3.109e-5
0.572, 3.099e-5
0.571, 3.091e-5
0.570, 3.083e-5
0.569, 3.073e-5
0.568, 3.063e-5
0.567, 3.054e-5
0.566, 3.044e-5
0.565, 3.033e-5
0.564, 3.021e-5
0.563, 3.011e-5
0.562, 2.999e-5
0.561, 2.986e-5
0.560, 2.973e-5
0.559, 2.960e-5
0.558, 2.946e-5
0.557, 2.933e-5
0.556, 2.917e-5
0.555, 2.902e-5
0.554, 2.887e-5
0.553, 2.870e-5
0.552, 2.853e-5
0.551, 2.836e-5
0.550, 2.820e-5
0.549, 2.799e-5
0.548, 2.779e-5
0.547, 2.759e-5
0.546, 2.739e-5
0.545, 2.715e-5
0.544, 2.694e-5
0.543, 2.671e-5
0.542, 2.647e-5
0.541, 2.623e-5
0.540, 2.595e-5
0.539, 2.572e-5
0.538, 2.539e-5
0.537, 2.510e-5
0.536, 2.483e-5
0.535, 2.452e-5
0.534, 2.421e-5
0.533, 2.389e-5
0.532, 2.355e-5
0.531, 2.322e-5
0.530, 2.285e-5
0.529, 2.249e-5
0.528, 2.207e-5
0.527, 2.173e-5
0.526, 2.130e-5
0.525, 2.099e-5
0.524, 2.051e-5
0.523, 2.007e-5
0.522, 1.961e-5
0.521, 1.914e-5
0.520, 1.865e-5
0.519, 1.818e-5
0.518, 1.767e-5
0.517, 1.718e-5
0.516, 1.661e-5
0.515, 1.607e-5
0.514, 1.552e-5
0.513, 1.493e-5
0.512, 1.422e-5
0.511, 1.368e-5
0.510, 1.309e-5
0.509, 1.247e-5
0.508, 1.178e-5
0.507, 1.116e-5
0.506, 1.046e-5
0.505, 9.829e-6
0.504, 9.066e-6
0.503, 8.399e-6
0.502, 7.765e-6
0.501, 6.996e-6
0.500, 6.242e-6
0.499, 5.526e-6
0.498, 4.742e-6
0.497, 3.956e-6
0.496, 3.190e-6
0.495, 2.372e-6
0.494, 1.592e-6
0.493, 7.708e-7
0.492, -1.140e-7
0.491, -9.045e-7
0.490, -1.651e-6
0.489, -2.585e-6
0.488, -3.437e-6
0.487, -4.369e-6
0.486, -5.292e-6
0.485, -6.000e-6
0.484, -6.924e-6
0.483, -7.702e-6
0.482, -8.493e-6
0.481, -9.409e-6
0.480, -1.019e-5
0.479, -1.106e-5
0.478, -1.185e-5
0.477, -1.266e-5
0.476, -1.355e-5
0.475, -1.430e-5
0.474, -1.490e-5
0.473, -1.577e-5
0.472, -1.662e-5
0.471, -1.734e-5
0.470, -1.804e-5
0.469, -1.875e-5
0.468, -1.951e-5
0.467, -2.016e-5
0.466, -2.079e-5
0.465, -2.148e-5
0.464, -2.217e-5
0.463, -2.263e-5
0.462, -2.333e-5
0.461, -2.373e-5
0.460, -2.441e-5
0.459, -2.489e-5
0.458, -2.530e-5
0.457, -2.580e-5
0.456, -2.635e-5
0.455, -2.670e-5
0.454, -2.707e-5
0.453, -2.749e-5
0.452, -2.791e-5
0.451, -2.815e-5
0.450, -2.841e-5
0.449, -2.873e-5
0.448, -2.882e-5
0.447, -2.915e-5
0.446, -2.937e-5
0.445, -2.947e-5
0.444, -2.974e-5
0.443, -2.990e-5
0.442, -2.990e-5
0.441, -3.012e-5
0.440, -3.018e-5
0.439, -3.023e-5
0.438, -3.025e-5
0.437, -3.024e-5
0.436, -3.040e-5
0.435, -3.034e-5
0.434, -3.026e-5
0.433, -3.024e-5
0.432, -3.015e-5
0.431, -3.004e-5
0.430, -2.994e-5
0.429, -2.979e-5
0.428, -2.973e-5
0.427, -2.958e-5
0.426, -2.938e-5
0.425, -2.927e-5
0.424, -2.910e-5
0.423, -2.880e-5
0.422, -2.865e-5
0.421, -2.843e-5
0.420, -2.828e-5
0.419, -2.806e-5
0.418, -2.780e-5
0.417, -2.760e-5
0.416, -2.735e-5
0.415, -2.713e-5
0.414, -2.689e-5
0.413, -2.661e-5
0.412, -2.638e-5
0.411, -2.610e-5
0.410, -2.556e-5
0.409, -2.543e-5
0.408, -2.523e-5
0.407, -2.496e-5
0.406, -2.472e-5
0.405, -2.442e-5
0.404, -2.420e-5
0.403, -2.392e-5
0.402, -2.363e-5
0.401, -2.340e-5
0.400, -2.310e-5
0.399, -2.284e-5
0.398, -2.255e-5
0.397, -2.223e-5
0.396, -2.200e-5
0.395, -2.175e-5
0.394, -2.146e-5
0.393, -2.121e-5
0.392, -2.094e-5
0.391, -2.067e-5
0.390, -2.040e-5
0.389, -2.015e-5
0.388, -1.989e-5
0.387, -1.963e-5
0.386, -1.937e-5
0.385, -1.913e-5
0.384, -1.892e-5
0.383, -1.864e-5
0.382, -1.839e-5
0.381, -1.814e-5
0.380, -1.790e-5
0.379, -1.766e-5
0.378, -1.742e-5
0.377, -1.719e-5
0.376, -1.696e-5
0.375, -1.673e-5
0.374, -1.651e-5
0.373, -1.627e-5
0.372, -1.605e-5
0.371, -1.583e-5
0.370, -1.561e-5
0.369, -1.540e-5
0.368, -1.520e-5
0.367, -1.499e-5
0.366, -1.479e-5
0.365, -1.459e-5
0.364, -1.439e-5
0.363, -1.420e-5
0.362, -1.400e-5
0.361, -1.382e-5
0.360, -1.364e-5
0.359, -1.344e-5
0.358, -1.327e-5
0.357, -1.309e-5
0.356, -1.292e-5
0.355, -1.274e-5
0.354, -1.257e-5
0.353, -1.240e-5
0.352, -1.224e-5
0.351, -1.208e-5
0.350, -1.192e-5
0.349, -1.176e-5
0.348, -1.161e-5
0.347, -1.145e-5
0.346, -1.129e-5
0.345, -1.115e-5
0.344, -1.101e-5
0.343, -1.086e-5
0.342, -1.072e-5
0.341, -1.058e-5
0.340, -1.045e-5
0.339, -1.031e-5
0.338, -1.018e-5
0.337, -1.005e-5
0.336, -9.924e-6
0.335, -9.800e-6
0.334, -9.680e-6
0.333, -9.565e-6
0.332, -9.441e-6
0.331, -9.323e-6
0.330, -9.205e-6
0.329, -9.091e-6
0.328, -8.977e-6
0.327, -8.864e-6
0.326, -8.755e-6
0.325, -8.647e-6
0.324, -8.546e-6
0.323, -8.437e-6
0.322, -8.334e-6
0.321, -8.236e-6
0.320, -8.132e-6
0.319, -8.037e-6
0.318, -7.940e-6
0.317, -7.845e-6
0.316, -7.753e-6
0.315, -7.660e-6
0.314, -7.567e-6
0.313, -7.480e-6
0.312, -7.395e-6
0.311, -7.308e-6
0.310, -7.223e-6
0.309, -7.143e-6
0.308, -7.064e-6
0.307, -6.981e-6
0.306, -6.898e-6
0.305, -6.819e-6
0.304, -6.743e-6
0.303, -6.669e-6
0.302, -6.592e-6
0.301, -6.517e-6
0.300, -6.449e-6
0.299, -6.377e-6
0.298, -6.303e-6
0.297, -6.237e-6
0.296, -6.172e-6
0.295, -6.096e-6
0.294, -6.033e-6
0.293, -5.969e-6
0.292, -5.909e-6
0.291, -5.847e-6
0.290, -5.784e-6
0.289, -5.727e-6
0.288, -5.666e-6
0.287, -5.606e-6
0.286, -5.547e-6
0.285, -5.489e-6
0.284, -5.434e-6
0.283, -5.379e-6
0.282, -5.326e-6
0.281, -5.270e-6
0.280, -5.219e-6
0.279, -5.166e-6
0.278, -5.112e-6
0.277, -5.060e-6
0.276, -5.012e-6
0.275, -4.961e-6
0.274, -4.912e-6
0.273, -4.862e-6
0.272, -4.817e-6
0.271, -4.768e-6
0.270, -4.726e-6
0.269, -4.675e-6
0.268, -4.634e-6
0.267, -4.589e-6
0.266, -4.545e-6
0.265, -4.504e-6
0.264, -4.465e-6
0.263, -4.422e-6
0.262, -4.381e-6
0.261, -4.343e-6
0.260, -4.305e-6
0.259, -4.264e-6
0.258, -4.227e-6
0.257, -4.190e-6
0.256, -4.148e-6
0.255, -4.114e-6
0.254, -4.081e-6
0.253, -4.047e-6
0.252, -4.018e-6
0.251, -3.981e-6
0.250, -3.944e-6
0.249, -3.912e-6
0.248, -3.882e-6
0.247, -3.847e-6
0.246, -3.814e-6
0.245, -3.785e-6
0.244, -3.753e-6
0.243, -3.723e-6
0.242, -3.688e-6
0.241, -3.661e-6
0.240, -3.634e-6
0.239, -3.604e-6
0.238, -3.572e-6
0.237, -3.544e-6
0.236, -3.519e-6
0.235, -3.493e-6
0.234, -3.464e-6
0.233, -3.438e-6
0.232, -3.413e-6
0.231, -3.391e-6
0.230, -3.361e-6
0.229, -3.336e-6
0.228, -3.312e-6
0.227, -3.286e-6
0.226, -3.262e-6
0.225, -3.238e-6
0.224, -3.214e-6
0.223, -3.191e-6
0.222, -3.168e-6
0.221, -3.145e-6
0.220, -3.124e-6
0.219, -3.102e-6
0.218, -3.075e-6
0.217, -3.057e-6
0.216, -3.037e-6
0.215, -3.016e-6
0.214, -2.997e-6
0.213, -2.975e-6
0.212, -2.957e-6
0.211, -2.936e-6
0.210, -2.915e-6
0.209, -2.899e-6
0.208, -2.881e-6
0.207, -2.863e-6
0.206, -2.845e-6
0.205, -2.813e-6
0.204, -2.808e-6
0.203, -2.791e-6
0.202, -2.771e-6
0.201, -2.758e-6
0.200, -2.740e-6
0.199, -2.722e-6
0.198, -2.707e-6
0.197, -2.689e-6
0.196, -2.675e-6
0.195, -2.659e-6
0.194, -2.642e-6
0.193, -2.630e-6
0.192, -2.609e-6
0.191, -2.596e-6
0.190, -2.583e-6
0.189, -2.567e-6
0.188, -2.555e-6
0.187, -2.541e-6
0.186, -2.526e-6
0.185, -2.515e-6
0.184, -2.500e-6
0.183, -2.488e-6
0.182, -2.471e-6
0.181, -2.459e-6
0.180, -2.452e-6
0.179, -2.439e-6
0.178, -2.423e-6
0.177, -2.411e-6
0.176, -2.400e-6
0.175, -2.387e-6
0.174, -2.375e-6
0.173, -2.363e-6
0.172, -2.352e-6
0.171, -2.340e-6
0.170, -2.327e-6
0.169, -2.319e-6
0.168, -2.308e-6
0.167, -2.292e-6
0.166, -2.285e-6
0.165, -2.276e-6
0.164, -2.266e-6
0.163, -2.256e-6
0.162, -2.243e-6
0.161, -2.234e-6
0.160, -2.222e-6
0.159, -2.212e-6
0.158, -2.203e-6
0.157, -2.192e-6
0.156, -2.185e-6
0.155, -2.175e-6
0.154, -2.163e-6
0.153, -2.156e-6
0.152, -2.148e-6
0.151, -2.136e-6
0.150, -2.129e-6
0.149, -2.120e-6
0.148, -2.113e-6
0.147, -2.103e-6
0.146, -2.093e-6
0.145, -2.088e-6
0.144, -2.079e-6
0.143, -2.070e-6
0.142, -2.064e-6
0.141, -2.050e-6
0.140, -2.050e-6
0.139, -2.039e-6
0.138, -2.032e-6
0.137, -2.027e-6
0.136, -2.020e-6
0.135, -2.012e-6
0.134, -2.004e-6
0.133, -1.998e-6
0.132, -1.992e-6
0.131, -1.985e-6
0.130, -1.977e-6
0.129, -1.972e-6
0.128, -1.972e-6
0.127, -1.958e-6
0.126, -1.953e-6
0.125, -1.946e-6
0.124, -1.941e-6
0.123, -1.936e-6
0.122, -1.928e-6
0.121, -1.924e-6
0.120, -1.921e-6
0.119, -1.913e-6
0.118, -1.907e-6
0.117, -1.899e-6
0.116, -1.893e-6
0.115, -1.888e-6
0.114, -1.883e-6
0.113, -1.879e-6
0.112, -1.873e-6
0.111, -1.869e-6
0.110, -1.863e-6
0.109, -1.856e-6
0.108, -1.856e-6
0.107, -1.846e-6
0.106, -1.843e-6
0.105, -1.839e-6
0.104, -1.835e-6
0.103, -1.834e-6
0.102, -1.826e-6
0.101, -1.821e-6
0.100, -1.819e-6
0.099, -1.813e-6
0.098, -1.808e-6
0.097, -1.805e-6
0.096, -1.800e-6
0.095, -1.796e-6
0.094, -1.792e-6
0.093, -1.788e-6
0.092, -1.787e-6
0.091, -1.781e-6
0.090, -1.771e-6
0.089, -1.773e-6
0.088, -1.771e-6
0.087, -1.767e-6
0.086, -1.761e-6
0.085, -1.759e-6
0.084, -1.758e-6
0.083, -1.753e-6
0.082, -1.746e-6
0.081, -1.745e-6
0.080, -1.746e-6
0.079, -1.736e-6
0.078, -1.736e-6
0.077, -1.740e-6
0.076, -1.732e-6
0.075, -1.728e-6
0.074, -1.720e-6
0.073, -1.724e-6
0.072, -1.718e-6
0.071, -1.713e-6
0.070, -1.712e-6
0.069, -1.710e-6
0.068, -1.710e-6
0.067, -1.705e-6
0.066, -1.702e-6
0.065, -1.702e-6
0.064, -1.693e-6
0.063, -1.696e-6
0.062, -1.694e-6
0.061, -1.691e-6
0.060, -1.692e-6
0.059, -1.688e-6
0.058, -1.684e-6
0.057, -1.685e-6
0.056, -1.682e-6
0.055, -1.679e-6
0.054, -1.678e-6
0.053, -1.678e-6
0.052, -1.675e-6
0.051, -1.673e-6
0.050, -1.669e-6
0.049, -1.670e-6
0.048, -1.670e-6
0.047, -1.665e-6
0.046, -1.664e-6
0.045, -1.662e-6
0.044, -1.664e-6
0.043, -1.660e-6
0.042, -1.659e-6
0.041, -1.660e-6
0.040, -1.657e-6
0.039, -1.652e-6
0.038, -1.653e-6
0.037, -1.653e-6
0.036, -1.654e-6
0.035, -1.651e-6
0.034, -1.649e-6
0.033, -1.649e-6
0.032, -1.649e-6
0.031, -1.646e-6
0.030, -1.648e-6
0.029, -1.646e-6
0.028, -1.646e-6
0.027, -1.645e-6
0.026, -1.649e-6
0.025, -1.644e-6
0.024, -1.643e-6
0.023, -1.643e-6
0.022, -1.643e-6
0.021, -1.640e-6
0.020, -1.641e-6
0.019, -1.641e-6
0.018, -1.637e-6
0.017, -1.641e-6
0.016, -1.638e-6
0.015, -1.639e-6
0.014, -1.638e-6
0.013, -1.632e-6
0.012, -1.639e-6
0.011, -1.637e-6
0.010, -1.636e-6
0.009, -1.638e-6
0.008, -1.638e-6
0.007, -1.637e-6
0.006, -1.634e-6
0.005, -1.637e-6
0.004, -1.638e-6
0.003, -1.637e-6
0.002, -1.635e-6
0.001, -1.636e-6
