May 7, 2026   14:43:41
Cyclic Voltammetry
File: mecn_ar_0.1mtbapf6_3mmfc_1mmfe-tpypy2me_-1.7_to_1v_100mvs
Data Source:  Experiment
Instrument Model:  CHI660D
Header: 
Note: 

Init E (V) = 0
High E (V) = 1
Low E (V) = -1.7
Final E (V) = 0
Init P/N = N
Scan Rate (V/s) = 0.1
Segment = 3
Sample Interval (V) = 0.001
Quiet Time (sec) = 2
Sensitivity (A/V) = 1e-4
Comp R (ohm) = 131.5

Results:

Channel 1:
Segment 1:
Ep = -1.014V
ip = -3.714e-5A
Ah = -3.713e-5C

Segment 2:
Ep = -0.896V
ip = 3.553e-5A
Ah = 3.672e-5C

Ep = 0.495V
ip = 1.165e-4A
Ah = 7.269e-5C

Segment 3:
Ep = 0.435V
ip = -1.177e-4A
Ah = -7.637e-5C

Potential/V, Current/A

0.000, -1.781e-6
-0.001, -1.912e-6
-0.002, -1.952e-6
-0.003, -1.986e-6
-0.004, -2.021e-6
-0.005, -2.041e-6
-0.006, -2.057e-6
-0.007, -2.082e-6
-0.008, -2.097e-6
-0.009, -2.111e-6
-0.010, -2.125e-6
-0.011, -2.134e-6
-0.012, -2.152e-6
-0.013, -2.164e-6
-0.014, -2.174e-6
-0.015, -2.188e-6
-0.016, -2.201e-6
-0.017, -2.210e-6
-0.018, -2.223e-6
-0.019, -2.227e-6
-0.020, -2.243e-6
-0.021, -2.253e-6
-0.022, -2.262e-6
-0.023, -2.269e-6
-0.024, -2.278e-6
-0.025, -2.296e-6
-0.026, -2.300e-6
-0.027, -2.307e-6
-0.028, -2.314e-6
-0.029, -2.322e-6
-0.030, -2.325e-6
-0.031, -2.335e-6
-0.032, -2.345e-6
-0.033, -2.348e-6
-0.034, -2.356e-6
-0.035, -2.363e-6
-0.036, -2.374e-6
-0.037, -2.387e-6
-0.038, -2.379e-6
-0.039, -2.392e-6
-0.040, -2.403e-6
-0.041, -2.410e-6
-0.042, -2.416e-6
-0.043, -2.422e-6
-0.044, -2.433e-6
-0.045, -2.434e-6
-0.046, -2.442e-6
-0.047, -2.453e-6
-0.048, -2.459e-6
-0.049, -2.465e-6
-0.050, -2.467e-6
-0.051, -2.473e-6
-0.052, -2.486e-6
-0.053, -2.489e-6
-0.054, -2.495e-6
-0.055, -2.504e-6
-0.056, -2.507e-6
-0.057, -2.519e-6
-0.058, -2.521e-6
-0.059, -2.530e-6
-0.060, -2.541e-6
-0.061, -2.539e-6
-0.062, -2.541e-6
-0.063, -2.559e-6
-0.064, -2.552e-6
-0.065, -2.559e-6
-0.066, -2.573e-6
-0.067, -2.575e-6
-0.068, -2.585e-6
-0.069, -2.593e-6
-0.070, -2.592e-6
-0.071, -2.601e-6
-0.072, -2.612e-6
-0.073, -2.615e-6
-0.074, -2.622e-6
-0.075, -2.620e-6
-0.076, -2.644e-6
-0.077, -2.650e-6
-0.078, -2.640e-6
-0.079, -2.654e-6
-0.080, -2.660e-6
-0.081, -2.661e-6
-0.082, -2.668e-6
-0.083, -2.676e-6
-0.084, -2.684e-6
-0.085, -2.685e-6
-0.086, -2.688e-6
-0.087, -2.701e-6
-0.088, -2.703e-6
-0.089, -2.704e-6
-0.090, -2.716e-6
-0.091, -2.717e-6
-0.092, -2.734e-6
-0.093, -2.733e-6
-0.094, -2.745e-6
-0.095, -2.745e-6
-0.096, -2.759e-6
-0.097, -2.756e-6
-0.098, -2.763e-6
-0.099, -2.773e-6
-0.100, -2.779e-6
-0.101, -2.779e-6
-0.102, -2.790e-6
-0.103, -2.793e-6
-0.104, -2.799e-6
-0.105, -2.803e-6
-0.106, -2.813e-6
-0.107, -2.813e-6
-0.108, -2.822e-6
-0.109, -2.827e-6
-0.110, -2.834e-6
-0.111, -2.837e-6
-0.112, -2.842e-6
-0.113, -2.848e-6
-0.114, -2.856e-6
-0.115, -2.847e-6
-0.116, -2.864e-6
-0.117, -2.871e-6
-0.118, -2.872e-6
-0.119, -2.881e-6
-0.120, -2.886e-6
-0.121, -2.892e-6
-0.122, -2.898e-6
-0.123, -2.903e-6
-0.124, -2.911e-6
-0.125, -2.916e-6
-0.126, -2.921e-6
-0.127, -2.922e-6
-0.128, -2.944e-6
-0.129, -2.940e-6
-0.130, -2.947e-6
-0.131, -2.950e-6
-0.132, -2.960e-6
-0.133, -2.964e-6
-0.134, -2.967e-6
-0.135, -2.977e-6
-0.136, -2.981e-6
-0.137, -2.988e-6
-0.138, -2.992e-6
-0.139, -2.991e-6
-0.140, -2.997e-6
-0.141, -3.006e-6
-0.142, -3.009e-6
-0.143, -3.022e-6
-0.144, -3.025e-6
-0.145, -3.029e-6
-0.146, -3.038e-6
-0.147, -3.040e-6
-0.148, -3.051e-6
-0.149, -3.059e-6
-0.150, -3.059e-6
-0.151, -3.064e-6
-0.152, -3.071e-6
-0.153, -3.071e-6
-0.154, -3.083e-6
-0.155, -3.088e-6
-0.156, -3.094e-6
-0.157, -3.106e-6
-0.158, -3.098e-6
-0.159, -3.115e-6
-0.160, -3.121e-6
-0.161, -3.123e-6
-0.162, -3.129e-6
-0.163, -3.136e-6
-0.164, -3.147e-6
-0.165, -3.147e-6
-0.166, -3.148e-6
-0.167, -3.162e-6
-0.168, -3.165e-6
-0.169, -3.174e-6
-0.170, -3.179e-6
-0.171, -3.187e-6
-0.172, -3.193e-6
-0.173, -3.198e-6
-0.174, -3.200e-6
-0.175, -3.214e-6
-0.176, -3.223e-6
-0.177, -3.229e-6
-0.178, -3.234e-6
-0.179, -3.245e-6
-0.180, -3.250e-6
-0.181, -3.260e-6
-0.182, -3.257e-6
-0.183, -3.270e-6
-0.184, -3.275e-6
-0.185, -3.277e-6
-0.186, -3.281e-6
-0.187, -3.286e-6
-0.188, -3.302e-6
-0.189, -3.308e-6
-0.190, -3.311e-6
-0.191, -3.310e-6
-0.192, -3.315e-6
-0.193, -3.327e-6
-0.194, -3.338e-6
-0.195, -3.343e-6
-0.196, -3.355e-6
-0.197, -3.360e-6
-0.198, -3.359e-6
-0.199, -3.368e-6
-0.200, -3.380e-6
-0.201, -3.386e-6
-0.202, -3.388e-6
-0.203, -3.390e-6
-0.204, -3.396e-6
-0.205, -3.391e-6
-0.206, -3.410e-6
-0.207, -3.420e-6
-0.208, -3.425e-6
-0.209, -3.436e-6
-0.210, -3.446e-6
-0.211, -3.445e-6
-0.212, -3.462e-6
-0.213, -3.465e-6
-0.214, -3.467e-6
-0.215, -3.482e-6
-0.216, -3.487e-6
-0.217, -3.483e-6
-0.218, -3.496e-6
-0.219, -3.505e-6
-0.220, -3.511e-6
-0.221, -3.519e-6
-0.222, -3.523e-6
-0.223, -3.532e-6
-0.224, -3.543e-6
-0.225, -3.547e-6
-0.226, -3.548e-6
-0.227, -3.554e-6
-0.228, -3.569e-6
-0.229, -3.572e-6
-0.230, -3.593e-6
-0.231, -3.590e-6
-0.232, -3.599e-6
-0.233, -3.605e-6
-0.234, -3.613e-6
-0.235, -3.616e-6
-0.236, -3.627e-6
-0.237, -3.633e-6
-0.238, -3.637e-6
-0.239, -3.647e-6
-0.240, -3.653e-6
-0.241, -3.659e-6
-0.242, -3.663e-6
-0.243, -3.659e-6
-0.244, -3.684e-6
-0.245, -3.685e-6
-0.246, -3.691e-6
-0.247, -3.699e-6
-0.248, -3.711e-6
-0.249, -3.719e-6
-0.250, -3.721e-6
-0.251, -3.729e-6
-0.252, -3.740e-6
-0.253, -3.747e-6
-0.254, -3.746e-6
-0.255, -3.757e-6
-0.256, -3.763e-6
-0.257, -3.766e-6
-0.258, -3.775e-6
-0.259, -3.780e-6
-0.260, -3.792e-6
-0.261, -3.795e-6
-0.262, -3.799e-6
-0.263, -3.809e-6
-0.264, -3.816e-6
-0.265, -3.822e-6
-0.266, -3.827e-6
-0.267, -3.831e-6
-0.268, -3.841e-6
-0.269, -3.850e-6
-0.270, -3.853e-6
-0.271, -3.866e-6
-0.272, -3.867e-6
-0.273, -3.876e-6
-0.274, -3.878e-6
-0.275, -3.885e-6
-0.276, -3.893e-6
-0.277, -3.895e-6
-0.278, -3.907e-6
-0.279, -3.913e-6
-0.280, -3.918e-6
-0.281, -3.933e-6
-0.282, -3.931e-6
-0.283, -3.938e-6
-0.284, -3.942e-6
-0.285, -3.946e-6
-0.286, -3.957e-6
-0.287, -3.956e-6
-0.288, -3.964e-6
-0.289, -3.975e-6
-0.290, -3.978e-6
-0.291, -3.982e-6
-0.292, -3.988e-6
-0.293, -3.997e-6
-0.294, -3.989e-6
-0.295, -4.003e-6
-0.296, -4.011e-6
-0.297, -4.012e-6
-0.298, -4.020e-6
-0.299, -4.022e-6
-0.300, -4.029e-6
-0.301, -4.034e-6
-0.302, -4.035e-6
-0.303, -4.045e-6
-0.304, -4.052e-6
-0.305, -4.050e-6
-0.306, -4.060e-6
-0.307, -4.069e-6
-0.308, -4.069e-6
-0.309, -4.076e-6
-0.310, -4.071e-6
-0.311, -4.081e-6
-0.312, -4.082e-6
-0.313, -4.084e-6
-0.314, -4.093e-6
-0.315, -4.095e-6
-0.316, -4.102e-6
-0.317, -4.101e-6
-0.318, -4.104e-6
-0.319, -4.117e-6
-0.320, -4.107e-6
-0.321, -4.118e-6
-0.322, -4.122e-6
-0.323, -4.120e-6
-0.324, -4.136e-6
-0.325, -4.135e-6
-0.326, -4.135e-6
-0.327, -4.142e-6
-0.328, -4.145e-6
-0.329, -4.150e-6
-0.330, -4.154e-6
-0.331, -4.153e-6
-0.332, -4.170e-6
-0.333, -4.173e-6
-0.334, -4.169e-6
-0.335, -4.173e-6
-0.336, -4.177e-6
-0.337, -4.179e-6
-0.338, -4.184e-6
-0.339, -4.185e-6
-0.340, -4.195e-6
-0.341, -4.202e-6
-0.342, -4.196e-6
-0.343, -4.202e-6
-0.344, -4.210e-6
-0.345, -4.202e-6
-0.346, -4.209e-6
-0.347, -4.214e-6
-0.348, -4.221e-6
-0.349, -4.222e-6
-0.350, -4.223e-6
-0.351, -4.228e-6
-0.352, -4.230e-6
-0.353, -4.235e-6
-0.354, -4.238e-6
-0.355, -4.235e-6
-0.356, -4.244e-6
-0.357, -4.249e-6
-0.358, -4.239e-6
-0.359, -4.255e-6
-0.360, -4.256e-6
-0.361, -4.256e-6
-0.362, -4.260e-6
-0.363, -4.260e-6
-0.364, -4.264e-6
-0.365, -4.270e-6
-0.366, -4.270e-6
-0.367, -4.277e-6
-0.368, -4.277e-6
-0.369, -4.282e-6
-0.370, -4.285e-6
-0.371, -4.279e-6
-0.372, -4.291e-6
-0.373, -4.292e-6
-0.374, -4.295e-6
-0.375, -4.299e-6
-0.376, -4.303e-6
-0.377, -4.304e-6
-0.378, -4.309e-6
-0.379, -4.312e-6
-0.380, -4.315e-6
-0.381, -4.318e-6
-0.382, -4.319e-6
-0.383, -4.323e-6
-0.384, -4.342e-6
-0.385, -4.333e-6
-0.386, -4.336e-6
-0.387, -4.331e-6
-0.388, -4.344e-6
-0.389, -4.344e-6
-0.390, -4.338e-6
-0.391, -4.350e-6
-0.392, -4.349e-6
-0.393, -4.355e-6
-0.394, -4.357e-6
-0.395, -4.358e-6
-0.396, -4.356e-6
-0.397, -4.355e-6
-0.398, -4.362e-6
-0.399, -4.368e-6
-0.400, -4.368e-6
-0.401, -4.372e-6
-0.402, -4.374e-6
-0.403, -4.375e-6
-0.404, -4.379e-6
-0.405, -4.380e-6
-0.406, -4.383e-6
-0.407, -4.379e-6
-0.408, -4.388e-6
-0.409, -4.354e-6
-0.410, -4.381e-6
-0.411, -4.389e-6
-0.412, -4.398e-6
-0.413, -4.399e-6
-0.414, -4.393e-6
-0.415, -4.402e-6
-0.416, -4.404e-6
-0.417, -4.407e-6
-0.418, -4.406e-6
-0.419, -4.408e-6
-0.420, -4.415e-6
-0.421, -4.417e-6
-0.422, -4.400e-6
-0.423, -4.420e-6
-0.424, -4.421e-6
-0.425, -4.422e-6
-0.426, -4.423e-6
-0.427, -4.425e-6
-0.428, -4.430e-6
-0.429, -4.427e-6
-0.430, -4.433e-6
-0.431, -4.432e-6
-0.432, -4.439e-6
-0.433, -4.436e-6
-0.434, -4.442e-6
-0.435, -4.453e-6
-0.436, -4.452e-6
-0.437, -4.447e-6
-0.438, -4.443e-6
-0.439, -4.452e-6
-0.440, -4.448e-6
-0.441, -4.450e-6
-0.442, -4.449e-6
-0.443, -4.452e-6
-0.444, -4.460e-6
-0.445, -4.457e-6
-0.446, -4.458e-6
-0.447, -4.458e-6
-0.448, -4.450e-6
-0.449, -4.459e-6
-0.450, -4.460e-6
-0.451, -4.459e-6
-0.452, -4.467e-6
-0.453, -4.468e-6
-0.454, -4.461e-6
-0.455, -4.467e-6
-0.456, -4.467e-6
-0.457, -4.466e-6
-0.458, -4.471e-6
-0.459, -4.475e-6
-0.460, -4.469e-6
-0.461, -4.478e-6
-0.462, -4.471e-6
-0.463, -4.467e-6
-0.464, -4.480e-6
-0.465, -4.476e-6
-0.466, -4.476e-6
-0.467, -4.474e-6
-0.468, -4.479e-6
-0.469, -4.483e-6
-0.470, -4.479e-6
-0.471, -4.479e-6
-0.472, -4.481e-6
-0.473, -4.475e-6
-0.474, -4.481e-6
-0.475, -4.482e-6
-0.476, -4.487e-6
-0.477, -4.488e-6
-0.478, -4.481e-6
-0.479, -4.496e-6
-0.480, -4.486e-6
-0.481, -4.492e-6
-0.482, -4.493e-6
-0.483, -4.487e-6
-0.484, -4.493e-6
-0.485, -4.488e-6
-0.486, -4.504e-6
-0.487, -4.498e-6
-0.488, -4.496e-6
-0.489, -4.495e-6
-0.490, -4.498e-6
-0.491, -4.499e-6
-0.492, -4.502e-6
-0.493, -4.502e-6
-0.494, -4.495e-6
-0.495, -4.496e-6
-0.496, -4.501e-6
-0.497, -4.496e-6
-0.498, -4.502e-6
-0.499, -4.491e-6
-0.500, -4.498e-6
-0.501, -4.502e-6
-0.502, -4.501e-6
-0.503, -4.508e-6
-0.504, -4.504e-6
-0.505, -4.506e-6
-0.506, -4.504e-6
-0.507, -4.505e-6
-0.508, -4.511e-6
-0.509, -4.508e-6
-0.510, -4.508e-6
-0.511, -4.517e-6
-0.512, -4.528e-6
-0.513, -4.513e-6
-0.514, -4.515e-6
-0.515, -4.513e-6
-0.516, -4.520e-6
-0.517, -4.520e-6
-0.518, -4.506e-6
-0.519, -4.518e-6
-0.520, -4.517e-6
-0.521, -4.519e-6
-0.522, -4.519e-6
-0.523, -4.515e-6
-0.524, -4.521e-6
-0.525, -4.513e-6
-0.526, -4.520e-6
-0.527, -4.519e-6
-0.528, -4.525e-6
-0.529, -4.528e-6
-0.530, -4.522e-6
-0.531, -4.518e-6
-0.532, -4.527e-6
-0.533, -4.528e-6
-0.534, -4.527e-6
-0.535, -4.527e-6
-0.536, -4.533e-6
-0.537, -4.543e-6
-0.538, -4.538e-6
-0.539, -4.531e-6
-0.540, -4.537e-6
-0.541, -4.536e-6
-0.542, -4.535e-6
-0.543, -4.537e-6
-0.544, -4.540e-6
-0.545, -4.540e-6
-0.546, -4.540e-6
-0.547, -4.531e-6
-0.548, -4.546e-6
-0.549, -4.548e-6
-0.550, -4.524e-6
-0.551, -4.542e-6
-0.552, -4.551e-6
-0.553, -4.547e-6
-0.554, -4.545e-6
-0.555, -4.543e-6
-0.556, -4.553e-6
-0.557, -4.553e-6
-0.558, -4.548e-6
-0.559, -4.551e-6
-0.560, -4.554e-6
-0.561, -4.558e-6
-0.562, -4.554e-6
-0.563, -4.547e-6
-0.564, -4.556e-6
-0.565, -4.555e-6
-0.566, -4.556e-6
-0.567, -4.560e-6
-0.568, -4.559e-6
-0.569, -4.565e-6
-0.570, -4.566e-6
-0.571, -4.562e-6
-0.572, -4.568e-6
-0.573, -4.571e-6
-0.574, -4.565e-6
-0.575, -4.568e-6
-0.576, -4.562e-6
-0.577, -4.564e-6
-0.578, -4.574e-6
-0.579, -4.572e-6
-0.580, -4.575e-6
-0.581, -4.576e-6
-0.582, -4.570e-6
-0.583, -4.582e-6
-0.584, -4.582e-6
-0.585, -4.580e-6
-0.586, -4.583e-6
-0.587, -4.576e-6
-0.588, -4.600e-6
-0.589, -4.595e-6
-0.590, -4.585e-6
-0.591, -4.592e-6
-0.592, -4.593e-6
-0.593, -4.594e-6
-0.594, -4.593e-6
-0.595, -4.589e-6
-0.596, -4.603e-6
-0.597, -4.599e-6
-0.598, -4.595e-6
-0.599, -4.606e-6
-0.600, -4.602e-6
-0.601, -4.592e-6
-0.602, -4.593e-6
-0.603, -4.604e-6
-0.604, -4.610e-6
-0.605, -4.605e-6
-0.606, -4.607e-6
-0.607, -4.609e-6
-0.608, -4.609e-6
-0.609, -4.614e-6
-0.610, -4.615e-6
-0.611, -4.612e-6
-0.612, -4.619e-6
-0.613, -4.616e-6
-0.614, -4.587e-6
-0.615, -4.613e-6
-0.616, -4.620e-6
-0.617, -4.618e-6
-0.618, -4.623e-6
-0.619, -4.623e-6
-0.620, -4.629e-6
-0.621, -4.631e-6
-0.622, -4.629e-6
-0.623, -4.635e-6
-0.624, -4.638e-6
-0.625, -4.636e-6
-0.626, -4.636e-6
-0.627, -4.624e-6
-0.628, -4.642e-6
-0.629, -4.644e-6
-0.630, -4.642e-6
-0.631, -4.649e-6
-0.632, -4.653e-6
-0.633, -4.648e-6
-0.634, -4.653e-6
-0.635, -4.649e-6
-0.636, -4.662e-6
-0.637, -4.658e-6
-0.638, -4.660e-6
-0.639, -4.663e-6
-0.640, -4.686e-6
-0.641, -4.668e-6
-0.642, -4.669e-6
-0.643, -4.671e-6
-0.644, -4.677e-6
-0.645, -4.673e-6
-0.646, -4.673e-6
-0.647, -4.679e-6
-0.648, -4.683e-6
-0.649, -4.685e-6
-0.650, -4.685e-6
-0.651, -4.684e-6
-0.652, -4.683e-6
-0.653, -4.686e-6
-0.654, -4.689e-6
-0.655, -4.691e-6
-0.656, -4.696e-6
-0.657, -4.699e-6
-0.658, -4.700e-6
-0.659, -4.696e-6
-0.660, -4.702e-6
-0.661, -4.710e-6
-0.662, -4.705e-6
-0.663, -4.711e-6
-0.664, -4.715e-6
-0.665, -4.716e-6
-0.666, -4.713e-6
-0.667, -4.717e-6
-0.668, -4.723e-6
-0.669, -4.722e-6
-0.670, -4.724e-6
-0.671, -4.729e-6
-0.672, -4.728e-6
-0.673, -4.732e-6
-0.674, -4.734e-6
-0.675, -4.732e-6
-0.676, -4.743e-6
-0.677, -4.740e-6
-0.678, -4.728e-6
-0.679, -4.743e-6
-0.680, -4.744e-6
-0.681, -4.746e-6
-0.682, -4.752e-6
-0.683, -4.753e-6
-0.684, -4.760e-6
-0.685, -4.758e-6
-0.686, -4.760e-6
-0.687, -4.767e-6
-0.688, -4.767e-6
-0.689, -4.771e-6
-0.690, -4.775e-6
-0.691, -4.789e-6
-0.692, -4.786e-6
-0.693, -4.792e-6
-0.694, -4.780e-6
-0.695, -4.788e-6
-0.696, -4.795e-6
-0.697, -4.793e-6
-0.698, -4.799e-6
-0.699, -4.806e-6
-0.700, -4.806e-6
-0.701, -4.812e-6
-0.702, -4.808e-6
-0.703, -4.821e-6
-0.704, -4.809e-6
-0.705, -4.816e-6
-0.706, -4.824e-6
-0.707, -4.829e-6
-0.708, -4.830e-6
-0.709, -4.839e-6
-0.710, -4.834e-6
-0.711, -4.847e-6
-0.712, -4.848e-6
-0.713, -4.850e-6
-0.714, -4.857e-6
-0.715, -4.858e-6
-0.716, -4.877e-6
-0.717, -4.875e-6
-0.718, -4.872e-6
-0.719, -4.878e-6
-0.720, -4.887e-6
-0.721, -4.895e-6
-0.722, -4.891e-6
-0.723, -4.898e-6
-0.724, -4.904e-6
-0.725, -4.905e-6
-0.726, -4.906e-6
-0.727, -4.916e-6
-0.728, -4.923e-6
-0.729, -4.922e-6
-0.730, -4.926e-6
-0.731, -4.936e-6
-0.732, -4.944e-6
-0.733, -4.949e-6
-0.734, -4.947e-6
-0.735, -4.963e-6
-0.736, -4.969e-6
-0.737, -4.973e-6
-0.738, -4.975e-6
-0.739, -4.984e-6
-0.740, -4.992e-6
-0.741, -5.001e-6
-0.742, -5.014e-6
-0.743, -5.012e-6
-0.744, -5.027e-6
-0.745, -5.021e-6
-0.746, -5.036e-6
-0.747, -5.040e-6
-0.748, -5.046e-6
-0.749, -5.061e-6
-0.750, -5.063e-6
-0.751, -5.067e-6
-0.752, -5.073e-6
-0.753, -5.089e-6
-0.754, -5.092e-6
-0.755, -5.090e-6
-0.756, -5.111e-6
-0.757, -5.124e-6
-0.758, -5.118e-6
-0.759, -5.145e-6
-0.760, -5.147e-6
-0.761, -5.157e-6
-0.762, -5.170e-6
-0.763, -5.172e-6
-0.764, -5.197e-6
-0.765, -5.196e-6
-0.766, -5.209e-6
-0.767, -5.224e-6
-0.768, -5.224e-6
-0.769, -5.242e-6
-0.770, -5.249e-6
-0.771, -5.262e-6
-0.772, -5.279e-6
-0.773, -5.289e-6
-0.774, -5.296e-6
-0.775, -5.318e-6
-0.776, -5.334e-6
-0.777, -5.342e-6
-0.778, -5.355e-6
-0.779, -5.370e-6
-0.780, -5.379e-6
-0.781, -5.397e-6
-0.782, -5.407e-6
-0.783, -5.429e-6
-0.784, -5.450e-6
-0.785, -5.464e-6
-0.786, -5.478e-6
-0.787, -5.492e-6
-0.788, -5.521e-6
-0.789, -5.540e-6
-0.790, -5.553e-6
-0.791, -5.577e-6
-0.792, -5.598e-6
-0.793, -5.638e-6
-0.794, -5.651e-6
-0.795, -5.668e-6
-0.796, -5.696e-6
-0.797, -5.720e-6
-0.798, -5.731e-6
-0.799, -5.769e-6
-0.800, -5.795e-6
-0.801, -5.830e-6
-0.802, -5.844e-6
-0.803, -5.882e-6
-0.804, -5.909e-6
-0.805, -5.946e-6
-0.806, -5.953e-6
-0.807, -6.006e-6
-0.808, -6.040e-6
-0.809, -6.082e-6
-0.810, -6.121e-6
-0.811, -6.158e-6
-0.812, -6.206e-6
-0.813, -6.245e-6
-0.814, -6.283e-6
-0.815, -6.332e-6
-0.816, -6.384e-6
-0.817, -6.433e-6
-0.818, -6.476e-6
-0.819, -6.489e-6
-0.820, -6.570e-6
-0.821, -6.634e-6
-0.822, -6.687e-6
-0.823, -6.753e-6
-0.824, -6.813e-6
-0.825, -6.884e-6
-0.826, -6.951e-6
-0.827, -7.016e-6
-0.828, -7.090e-6
-0.829, -7.164e-6
-0.830, -7.228e-6
-0.831, -7.315e-6
-0.832, -7.368e-6
-0.833, -7.468e-6
-0.834, -7.557e-6
-0.835, -7.637e-6
-0.836, -7.742e-6
-0.837, -7.833e-6
-0.838, -7.920e-6
-0.839, -8.030e-6
-0.840, -8.132e-6
-0.841, -8.246e-6
-0.842, -8.354e-6
-0.843, -8.450e-6
-0.844, -8.591e-6
-0.845, -8.718e-6
-0.846, -8.838e-6
-0.847, -8.950e-6
-0.848, -9.093e-6
-0.849, -9.213e-6
-0.850, -9.354e-6
-0.851, -9.485e-6
-0.852, -9.647e-6
-0.853, -9.791e-6
-0.854, -9.932e-6
-0.855, -1.009e-5
-0.856, -1.025e-5
-0.857, -1.040e-5
-0.858, -1.057e-5
-0.859, -1.074e-5
-0.860, -1.094e-5
-0.861, -1.116e-5
-0.862, -1.128e-5
-0.863, -1.150e-5
-0.864, -1.168e-5
-0.865, -1.189e-5
-0.866, -1.211e-5
-0.867, -1.231e-5
-0.868, -1.254e-5
-0.869, -1.277e-5
-0.870, -1.295e-5
-0.871, -1.320e-5
-0.872, -1.344e-5
-0.873, -1.369e-5
-0.874, -1.392e-5
-0.875, -1.415e-5
-0.876, -1.443e-5
-0.877, -1.468e-5
-0.878, -1.495e-5
-0.879, -1.521e-5
-0.880, -1.550e-5
-0.881, -1.578e-5
-0.882, -1.605e-5
-0.883, -1.626e-5
-0.884, -1.659e-5
-0.885, -1.688e-5
-0.886, -1.718e-5
-0.887, -1.748e-5
-0.888, -1.778e-5
-0.889, -1.811e-5
-0.890, -1.840e-5
-0.891, -1.869e-5
-0.892, -1.903e-5
-0.893, -1.936e-5
-0.894, -1.965e-5
-0.895, -1.996e-5
-0.896, -2.040e-5
-0.897, -2.066e-5
-0.898, -2.097e-5
-0.899, -2.124e-5
-0.900, -2.159e-5
-0.901, -2.195e-5
-0.902, -2.222e-5
-0.903, -2.254e-5
-0.904, -2.287e-5
-0.905, -2.322e-5
-0.906, -2.353e-5
-0.907, -2.379e-5
-0.908, -2.414e-5
-0.909, -2.439e-5
-0.910, -2.472e-5
-0.911, -2.506e-5
-0.912, -2.536e-5
-0.913, -2.569e-5
-0.914, -2.599e-5
-0.915, -2.622e-5
-0.916, -2.655e-5
-0.917, -2.685e-5
-0.918, -2.715e-5
-0.919, -2.743e-5
-0.920, -2.770e-5
-0.921, -2.805e-5
-0.922, -2.831e-5
-0.923, -2.856e-5
-0.924, -2.881e-5
-0.925, -2.906e-5
-0.926, -2.932e-5
-0.927, -2.958e-5
-0.928, -2.980e-5
-0.929, -3.007e-5
-0.930, -3.029e-5
-0.931, -3.049e-5
-0.932, -3.077e-5
-0.933, -3.101e-5
-0.934, -3.113e-5
-0.935, -3.142e-5
-0.936, -3.166e-5
-0.937, -3.185e-5
-0.938, -3.206e-5
-0.939, -3.225e-5
-0.940, -3.254e-5
-0.941, -3.272e-5
-0.942, -3.293e-5
-0.943, -3.312e-5
-0.944, -3.333e-5
-0.945, -3.357e-5
-0.946, -3.374e-5
-0.947, -3.403e-5
-0.948, -3.422e-5
-0.949, -3.439e-5
-0.950, -3.455e-5
-0.951, -3.479e-5
-0.952, -3.494e-5
-0.953, -3.519e-5
-0.954, -3.535e-5
-0.955, -3.555e-5
-0.956, -3.578e-5
-0.957, -3.595e-5
-0.958, -3.617e-5
-0.959, -3.635e-5
-0.960, -3.647e-5
-0.961, -3.677e-5
-0.962, -3.694e-5
-0.963, -3.714e-5
-0.964, -3.742e-5
-0.965, -3.761e-5
-0.966, -3.778e-5
-0.967, -3.803e-5
-0.968, -3.825e-5
-0.969, -3.845e-5
-0.970, -3.869e-5
-0.971, -3.890e-5
-0.972, -3.912e-5
-0.973, -3.931e-5
-0.974, -3.952e-5
-0.975, -3.976e-5
-0.976, -3.996e-5
-0.977, -4.017e-5
-0.978, -4.038e-5
-0.979, -4.060e-5
-0.980, -4.084e-5
-0.981, -4.105e-5
-0.982, -4.123e-5
-0.983, -4.145e-5
-0.984, -4.164e-5
-0.985, -4.183e-5
-0.986, -4.195e-5
-0.987, -4.217e-5
-0.988, -4.239e-5
-0.989, -4.257e-5
-0.990, -4.276e-5
-0.991, -4.293e-5
-0.992, -4.308e-5
-0.993, -4.327e-5
-0.994, -4.340e-5
-0.995, -4.352e-5
-0.996, -4.374e-5
-0.997, -4.384e-5
-0.998, -4.407e-5
-0.999, -4.416e-5
-1.000, -4.429e-5
-1.001, -4.436e-5
-1.002, -4.446e-5
-1.003, -4.453e-5
-1.004, -4.464e-5
-1.005, -4.471e-5
-1.006, -4.476e-5
-1.007, -4.483e-5
-1.008, -4.493e-5
-1.009, -4.493e-5
-1.010, -4.497e-5
-1.011, -4.493e-5
-1.012, -4.498e-5
-1.013, -4.500e-5
-1.014, -4.501e-5
-1.015, -4.500e-5
-1.016, -4.499e-5
-1.017, -4.500e-5
-1.018, -4.498e-5
-1.019, -4.491e-5
-1.020, -4.491e-5
-1.021, -4.485e-5
-1.022, -4.480e-5
-1.023, -4.475e-5
-1.024, -4.448e-5
-1.025, -4.454e-5
-1.026, -4.451e-5
-1.027, -4.441e-5
-1.028, -4.431e-5
-1.029, -4.424e-5
-1.030, -4.413e-5
-1.031, -4.407e-5
-1.032, -4.393e-5
-1.033, -4.384e-5
-1.034, -4.372e-5
-1.035, -4.359e-5
-1.036, -4.348e-5
-1.037, -4.333e-5
-1.038, -4.321e-5
-1.039, -4.309e-5
-1.040, -4.294e-5
-1.041, -4.283e-5
-1.042, -4.269e-5
-1.043, -4.254e-5
-1.044, -4.241e-5
-1.045, -4.226e-5
-1.046, -4.211e-5
-1.047, -4.196e-5
-1.048, -4.183e-5
-1.049, -4.171e-5
-1.050, -4.155e-5
-1.051, -4.137e-5
-1.052, -4.122e-5
-1.053, -4.108e-5
-1.054, -4.090e-5
-1.055, -4.078e-5
-1.056, -4.060e-5
-1.057, -4.045e-5
-1.058, -4.030e-5
-1.059, -4.012e-5
-1.060, -3.999e-5
-1.061, -3.983e-5
-1.062, -3.964e-5
-1.063, -3.950e-5
-1.064, -3.935e-5
-1.065, -3.920e-5
-1.066, -3.905e-5
-1.067, -3.889e-5
-1.068, -3.875e-5
-1.069, -3.860e-5
-1.070, -3.844e-5
-1.071, -3.831e-5
-1.072, -3.814e-5
-1.073, -3.801e-5
-1.074, -3.786e-5
-1.075, -3.769e-5
-1.076, -3.757e-5
-1.077, -3.742e-5
-1.078, -3.727e-5
-1.079, -3.714e-5
-1.080, -3.700e-5
-1.081, -3.687e-5
-1.082, -3.673e-5
-1.083, -3.660e-5
-1.084, -3.646e-5
-1.085, -3.633e-5
-1.086, -3.619e-5
-1.087, -3.607e-5
-1.088, -3.591e-5
-1.089, -3.579e-5
-1.090, -3.568e-5
-1.091, -3.554e-5
-1.092, -3.543e-5
-1.093, -3.531e-5
-1.094, -3.517e-5
-1.095, -3.507e-5
-1.096, -3.495e-5
-1.097, -3.483e-5
-1.098, -3.471e-5
-1.099, -3.460e-5
-1.100, -3.450e-5
-1.101, -3.439e-5
-1.102, -3.426e-5
-1.103, -3.416e-5
-1.104, -3.405e-5
-1.105, -3.392e-5
-1.106, -3.382e-5
-1.107, -3.370e-5
-1.108, -3.361e-5
-1.109, -3.350e-5
-1.110, -3.339e-5
-1.111, -3.329e-5
-1.112, -3.319e-5
-1.113, -3.308e-5
-1.114, -3.298e-5
-1.115, -3.289e-5
-1.116, -3.280e-5
-1.117, -3.270e-5
-1.118, -3.261e-5
-1.119, -3.251e-5
-1.120, -3.242e-5
-1.121, -3.234e-5
-1.122, -3.224e-5
-1.123, -3.214e-5
-1.124, -3.206e-5
-1.125, -3.197e-5
-1.126, -3.189e-5
-1.127, -3.180e-5
-1.128, -3.171e-5
-1.129, -3.163e-5
-1.130, -3.155e-5
-1.131, -3.146e-5
-1.132, -3.138e-5
-1.133, -3.130e-5
-1.134, -3.121e-5
-1.135, -3.113e-5
-1.136, -3.106e-5
-1.137, -3.098e-5
-1.138, -3.090e-5
-1.139, -3.080e-5
-1.140, -3.075e-5
-1.141, -3.068e-5
-1.142, -3.059e-5
-1.143, -3.053e-5
-1.144, -3.045e-5
-1.145, -3.038e-5
-1.146, -3.031e-5
-1.147, -3.024e-5
-1.148, -3.017e-5
-1.149, -3.010e-5
-1.150, -3.003e-5
-1.151, -2.996e-5
-1.152, -2.992e-5
-1.153, -2.983e-5
-1.154, -2.976e-5
-1.155, -2.970e-5
-1.156, -2.964e-5
-1.157, -2.958e-5
-1.158, -2.951e-5
-1.159, -2.945e-5
-1.160, -2.939e-5
-1.161, -2.932e-5
-1.162, -2.927e-5
-1.163, -2.920e-5
-1.164, -2.914e-5
-1.165, -2.908e-5
-1.166, -2.903e-5
-1.167, -2.897e-5
-1.168, -2.891e-5
-1.169, -2.886e-5
-1.170, -2.880e-5
-1.171, -2.874e-5
-1.172, -2.869e-5
-1.173, -2.864e-5
-1.174, -2.858e-5
-1.175, -2.853e-5
-1.176, -2.847e-5
-1.177, -2.841e-5
-1.178, -2.837e-5
-1.179, -2.831e-5
-1.180, -2.827e-5
-1.181, -2.821e-5
-1.182, -2.815e-5
-1.183, -2.811e-5
-1.184, -2.806e-5
-1.185, -2.801e-5
-1.186, -2.796e-5
-1.187, -2.791e-5
-1.188, -2.787e-5
-1.189, -2.782e-5
-1.190, -2.776e-5
-1.191, -2.772e-5
-1.192, -2.767e-5
-1.193, -2.764e-5
-1.194, -2.758e-5
-1.195, -2.754e-5
-1.196, -2.749e-5
-1.197, -2.744e-5
-1.198, -2.740e-5
-1.199, -2.736e-5
-1.200, -2.731e-5
-1.201, -2.727e-5
-1.202, -2.723e-5
-1.203, -2.720e-5
-1.204, -2.715e-5
-1.205, -2.711e-5
-1.206, -2.705e-5
-1.207, -2.702e-5
-1.208, -2.698e-5
-1.209, -2.694e-5
-1.210, -2.689e-5
-1.211, -2.685e-5
-1.212, -2.682e-5
-1.213, -2.678e-5
-1.214, -2.674e-5
-1.215, -2.670e-5
-1.216, -2.665e-5
-1.217, -2.662e-5
-1.218, -2.658e-5
-1.219, -2.654e-5
-1.220, -2.651e-5
-1.221, -2.646e-5
-1.222, -2.642e-5
-1.223, -2.640e-5
-1.224, -2.635e-5
-1.225, -2.632e-5
-1.226, -2.628e-5
-1.227, -2.624e-5
-1.228, -2.620e-5
-1.229, -2.616e-5
-1.230, -2.614e-5
-1.231, -2.611e-5
-1.232, -2.607e-5
-1.233, -2.604e-5
-1.234, -2.600e-5
-1.235, -2.596e-5
-1.236, -2.594e-5
-1.237, -2.590e-5
-1.238, -2.586e-5
-1.239, -2.583e-5
-1.240, -2.581e-5
-1.241, -2.576e-5
-1.242, -2.574e-5
-1.243, -2.570e-5
-1.244, -2.568e-5
-1.245, -2.564e-5
-1.246, -2.561e-5
-1.247, -2.558e-5
-1.248, -2.555e-5
-1.249, -2.552e-5
-1.250, -2.549e-5
-1.251, -2.545e-5
-1.252, -2.543e-5
-1.253, -2.540e-5
-1.254, -2.538e-5
-1.255, -2.535e-5
-1.256, -2.532e-5
-1.257, -2.528e-5
-1.258, -2.526e-5
-1.259, -2.522e-5
-1.260, -2.520e-5
-1.261, -2.517e-5
-1.262, -2.514e-5
-1.263, -2.511e-5
-1.264, -2.509e-5
-1.265, -2.505e-5
-1.266, -2.503e-5
-1.267, -2.498e-5
-1.268, -2.497e-5
-1.269, -2.494e-5
-1.270, -2.492e-5
-1.271, -2.489e-5
-1.272, -2.486e-5
-1.273, -2.483e-5
-1.274, -2.480e-5
-1.275, -2.478e-5
-1.276, -2.476e-5
-1.277, -2.473e-5
-1.278, -2.470e-5
-1.279, -2.468e-5
-1.280, -2.465e-5
-1.281, -2.463e-5
-1.282, -2.460e-5
-1.283, -2.457e-5
-1.284, -2.455e-5
-1.285, -2.452e-5
-1.286, -2.449e-5
-1.287, -2.448e-5
-1.288, -2.446e-5
-1.289, -2.443e-5
-1.290, -2.440e-5
-1.291, -2.437e-5
-1.292, -2.435e-5
-1.293, -2.433e-5
-1.294, -2.429e-5
-1.295, -2.428e-5
-1.296, -2.426e-5
-1.297, -2.423e-5
-1.298, -2.421e-5
-1.299, -2.418e-5
-1.300, -2.417e-5
-1.301, -2.414e-5
-1.302, -2.411e-5
-1.303, -2.410e-5
-1.304, -2.407e-5
-1.305, -2.406e-5
-1.306, -2.403e-5
-1.307, -2.401e-5
-1.308, -2.399e-5
-1.309, -2.396e-5
-1.310, -2.393e-5
-1.311, -2.392e-5
-1.312, -2.389e-5
-1.313, -2.388e-5
-1.314, -2.385e-5
-1.315, -2.383e-5
-1.316, -2.381e-5
-1.317, -2.379e-5
-1.318, -2.375e-5
-1.319, -2.374e-5
-1.320, -2.372e-5
-1.321, -2.371e-5
-1.322, -2.367e-5
-1.323, -2.366e-5
-1.324, -2.364e-5
-1.325, -2.362e-5
-1.326, -2.360e-5
-1.327, -2.357e-5
-1.328, -2.356e-5
-1.329, -2.354e-5
-1.330, -2.351e-5
-1.331, -2.351e-5
-1.332, -2.348e-5
-1.333, -2.346e-5
-1.334, -2.343e-5
-1.335, -2.341e-5
-1.336, -2.339e-5
-1.337, -2.337e-5
-1.338, -2.336e-5
-1.339, -2.334e-5
-1.340, -2.332e-5
-1.341, -2.330e-5
-1.342, -2.327e-5
-1.343, -2.326e-5
-1.344, -2.323e-5
-1.345, -2.322e-5
-1.346, -2.320e-5
-1.347, -2.318e-5
-1.348, -2.316e-5
-1.349, -2.314e-5
-1.350, -2.312e-5
-1.351, -2.311e-5
-1.352, -2.309e-5
-1.353, -2.307e-5
-1.354, -2.305e-5
-1.355, -2.304e-5
-1.356, -2.303e-5
-1.357, -2.300e-5
-1.358, -2.299e-5
-1.359, -2.297e-5
-1.360, -2.295e-5
-1.361, -2.294e-5
-1.362, -2.291e-5
-1.363, -2.289e-5
-1.364, -2.288e-5
-1.365, -2.286e-5
-1.366, -2.284e-5
-1.367, -2.282e-5
-1.368, -2.281e-5
-1.369, -2.278e-5
-1.370, -2.277e-5
-1.371, -2.276e-5
-1.372, -2.274e-5
-1.373, -2.273e-5
-1.374, -2.270e-5
-1.375, -2.269e-5
-1.376, -2.267e-5
-1.377, -2.266e-5
-1.378, -2.264e-5
-1.379, -2.262e-5
-1.380, -2.261e-5
-1.381, -2.259e-5
-1.382, -2.256e-5
-1.383, -2.256e-5
-1.384, -2.254e-5
-1.385, -2.253e-5
-1.386, -2.250e-5
-1.387, -2.249e-5
-1.388, -2.248e-5
-1.389, -2.246e-5
-1.390, -2.244e-5
-1.391, -2.243e-5
-1.392, -2.241e-5
-1.393, -2.239e-5
-1.394, -2.238e-5
-1.395, -2.235e-5
-1.396, -2.235e-5
-1.397, -2.233e-5
-1.398, -2.231e-5
-1.399, -2.230e-5
-1.400, -2.229e-5
-1.401, -2.228e-5
-1.402, -2.226e-5
-1.403, -2.224e-5
-1.404, -2.224e-5
-1.405, -2.222e-5
-1.406, -2.219e-5
-1.407, -2.218e-5
-1.408, -2.218e-5
-1.409, -2.215e-5
-1.410, -2.214e-5
-1.411, -2.212e-5
-1.412, -2.211e-5
-1.413, -2.209e-5
-1.414, -2.208e-5
-1.415, -2.207e-5
-1.416, -2.205e-5
-1.417, -2.204e-5
-1.418, -2.202e-5
-1.419, -2.201e-5
-1.420, -2.199e-5
-1.421, -2.197e-5
-1.422, -2.196e-5
-1.423, -2.195e-5
-1.424, -2.194e-5
-1.425, -2.192e-5
-1.426, -2.191e-5
-1.427, -2.189e-5
-1.428, -2.189e-5
-1.429, -2.187e-5
-1.430, -2.185e-5
-1.431, -2.185e-5
-1.432, -2.183e-5
-1.433, -2.179e-5
-1.434, -2.179e-5
-1.435, -2.178e-5
-1.436, -2.177e-5
-1.437, -2.176e-5
-1.438, -2.174e-5
-1.439, -2.174e-5
-1.440, -2.172e-5
-1.441, -2.171e-5
-1.442, -2.169e-5
-1.443, -2.168e-5
-1.444, -2.167e-5
-1.445, -2.166e-5
-1.446, -2.163e-5
-1.447, -2.163e-5
-1.448, -2.162e-5
-1.449, -2.160e-5
-1.450, -2.159e-5
-1.451, -2.157e-5
-1.452, -2.157e-5
-1.453, -2.155e-5
-1.454, -2.154e-5
-1.455, -2.153e-5
-1.456, -2.152e-5
-1.457, -2.151e-5
-1.458, -2.150e-5
-1.459, -2.149e-5
-1.460, -2.148e-5
-1.461, -2.146e-5
-1.462, -2.145e-5
-1.463, -2.144e-5
-1.464, -2.143e-5
-1.465, -2.141e-5
-1.466, -2.140e-5
-1.467, -2.140e-5
-1.468, -2.139e-5
-1.469, -2.137e-5
-1.470, -2.135e-5
-1.471, -2.135e-5
-1.472, -2.132e-5
-1.473, -2.132e-5
-1.474, -2.131e-5
-1.475, -2.130e-5
-1.476, -2.129e-5
-1.477, -2.128e-5
-1.478, -2.127e-5
-1.479, -2.125e-5
-1.480, -2.125e-5
-1.481, -2.124e-5
-1.482, -2.122e-5
-1.483, -2.121e-5
-1.484, -2.120e-5
-1.485, -2.119e-5
-1.486, -2.117e-5
-1.487, -2.117e-5
-1.488, -2.116e-5
-1.489, -2.115e-5
-1.490, -2.114e-5
-1.491, -2.112e-5
-1.492, -2.112e-5
-1.493, -2.111e-5
-1.494, -2.109e-5
-1.495, -2.109e-5
-1.496, -2.108e-5
-1.497, -2.106e-5
-1.498, -2.105e-5
-1.499, -2.104e-5
-1.500, -2.104e-5
-1.501, -2.103e-5
-1.502, -2.101e-5
-1.503, -2.101e-5
-1.504, -2.100e-5
-1.505, -2.099e-5
-1.506, -2.097e-5
-1.507, -2.096e-5
-1.508, -2.096e-5
-1.509, -2.095e-5
-1.510, -2.095e-5
-1.511, -2.094e-5
-1.512, -2.092e-5
-1.513, -2.091e-5
-1.514, -2.090e-5
-1.515, -2.090e-5
-1.516, -2.089e-5
-1.517, -2.087e-5
-1.518, -2.087e-5
-1.519, -2.086e-5
-1.520, -2.085e-5
-1.521, -2.084e-5
-1.522, -2.083e-5
-1.523, -2.082e-5
-1.524, -2.082e-5
-1.525, -2.081e-5
-1.526, -2.080e-5
-1.527, -2.079e-5
-1.528, -2.079e-5
-1.529, -2.077e-5
-1.530, -2.076e-5
-1.531, -2.075e-5
-1.532, -2.075e-5
-1.533, -2.074e-5
-1.534, -2.073e-5
-1.535, -2.073e-5
-1.536, -2.073e-5
-1.537, -2.071e-5
-1.538, -2.070e-5
-1.539, -2.069e-5
-1.540, -2.069e-5
-1.541, -2.068e-5
-1.542, -2.067e-5
-1.543, -2.066e-5
-1.544, -2.065e-5
-1.545, -2.065e-5
-1.546, -2.064e-5
-1.547, -2.063e-5
-1.548, -2.062e-5
-1.549, -2.061e-5
-1.550, -2.061e-5
-1.551, -2.060e-5
-1.552, -2.060e-5
-1.553, -2.058e-5
-1.554, -2.058e-5
-1.555, -2.057e-5
-1.556, -2.057e-5
-1.557, -2.056e-5
-1.558, -2.055e-5
-1.559, -2.055e-5
-1.560, -2.054e-5
-1.561, -2.054e-5
-1.562, -2.053e-5
-1.563, -2.052e-5
-1.564, -2.052e-5
-1.565, -2.051e-5
-1.566, -2.049e-5
-1.567, -2.050e-5
-1.568, -2.049e-5
-1.569, -2.049e-5
-1.570, -2.047e-5
-1.571, -2.047e-5
-1.572, -2.047e-5
-1.573, -2.046e-5
-1.574, -2.045e-5
-1.575, -2.044e-5
-1.576, -2.044e-5
-1.577, -2.043e-5
-1.578, -2.043e-5
-1.579, -2.042e-5
-1.580, -2.042e-5
-1.581, -2.041e-5
-1.582, -2.041e-5
-1.583, -2.040e-5
-1.584, -2.039e-5
-1.585, -2.039e-5
-1.586, -2.038e-5
-1.587, -2.038e-5
-1.588, -2.038e-5
-1.589, -2.037e-5
-1.590, -2.036e-5
-1.591, -2.036e-5
-1.592, -2.035e-5
-1.593, -2.035e-5
-1.594, -2.034e-5
-1.595, -2.034e-5
-1.596, -2.033e-5
-1.597, -2.033e-5
-1.598, -2.032e-5
-1.599, -2.032e-5
-1.600, -2.031e-5
-1.601, -2.031e-5
-1.602, -2.030e-5
-1.603, -2.030e-5
-1.604, -2.030e-5
-1.605, -2.029e-5
-1.606, -2.028e-5
-1.607, -2.028e-5
-1.608, -2.028e-5
-1.609, -2.027e-5
-1.610, -2.027e-5
-1.611, -2.026e-5
-1.612, -2.027e-5
-1.613, -2.026e-5
-1.614, -2.025e-5
-1.615, -2.025e-5
-1.616, -2.024e-5
-1.617, -2.024e-5
-1.618, -2.024e-5
-1.619, -2.023e-5
-1.620, -2.023e-5
-1.621, -2.022e-5
-1.622, -2.022e-5
-1.623, -2.022e-5
-1.624, -2.022e-5
-1.625, -2.020e-5
-1.626, -2.020e-5
-1.627, -2.020e-5
-1.628, -2.020e-5
-1.629, -2.020e-5
-1.630, -2.019e-5
-1.631, -2.020e-5
-1.632, -2.019e-5
-1.633, -2.019e-5
-1.634, -2.019e-5
-1.635, -2.018e-5
-1.636, -2.018e-5
-1.637, -2.018e-5
-1.638, -2.015e-5
-1.639, -2.017e-5
-1.640, -2.017e-5
-1.641, -2.016e-5
-1.642, -2.016e-5
-1.643, -2.016e-5
-1.644, -2.015e-5
-1.645, -2.016e-5
-1.646, -2.016e-5
-1.647, -2.015e-5
-1.648, -2.015e-5
-1.649, -2.015e-5
-1.650, -2.015e-5
-1.651, -2.013e-5
-1.652, -2.014e-5
-1.653, -2.014e-5
-1.654, -2.013e-5
-1.655, -2.014e-5
-1.656, -2.014e-5
-1.657, -2.013e-5
-1.658, -2.013e-5
-1.659, -2.012e-5
-1.660, -2.013e-5
-1.661, -2.012e-5
-1.662, -2.012e-5
-1.663, -2.012e-5
-1.664, -2.013e-5
-1.665, -2.013e-5
-1.666, -2.012e-5
-1.667, -2.011e-5
-1.668, -2.012e-5
-1.669, -2.011e-5
-1.670, -2.011e-5
-1.671, -2.011e-5
-1.672, -2.011e-5
-1.673, -2.011e-5
-1.674, -2.010e-5
-1.675, -2.010e-5
-1.676, -2.009e-5
-1.677, -2.009e-5
-1.678, -2.009e-5
-1.679, -2.009e-5
-1.680, -2.010e-5
-1.681, -2.008e-5
-1.682, -2.009e-5
-1.683, -2.008e-5
-1.684, -2.008e-5
-1.685, -2.008e-5
-1.686, -2.008e-5
-1.687, -2.008e-5
-1.688, -2.007e-5
-1.689, -2.007e-5
-1.690, -2.007e-5
-1.691, -2.006e-5
-1.692, -2.007e-5
-1.693, -2.007e-5
-1.694, -2.006e-5
-1.695, -2.006e-5
-1.696, -2.006e-5
-1.697, -2.005e-5
-1.698, -2.005e-5
-1.699, -2.005e-5
-1.700, -1.962e-5
-1.699, -1.934e-5
-1.698, -1.922e-5
-1.697, -1.912e-5
-1.696, -1.903e-5
-1.695, -1.896e-5
-1.694, -1.889e-5
-1.693, -1.883e-5
-1.692, -1.876e-5
-1.691, -1.871e-5
-1.690, -1.865e-5
-1.689, -1.861e-5
-1.688, -1.856e-5
-1.687, -1.851e-5
-1.686, -1.847e-5
-1.685, -1.842e-5
-1.684, -1.838e-5
-1.683, -1.834e-5
-1.682, -1.831e-5
-1.681, -1.826e-5
-1.680, -1.823e-5
-1.679, -1.819e-5
-1.678, -1.816e-5
-1.677, -1.814e-5
-1.676, -1.809e-5
-1.675, -1.806e-5
-1.674, -1.803e-5
-1.673, -1.800e-5
-1.672, -1.797e-5
-1.671, -1.793e-5
-1.670, -1.791e-5
-1.669, -1.788e-5
-1.668, -1.785e-5
-1.667, -1.782e-5
-1.666, -1.780e-5
-1.665, -1.777e-5
-1.664, -1.773e-5
-1.663, -1.771e-5
-1.662, -1.769e-5
-1.661, -1.767e-5
-1.660, -1.764e-5
-1.659, -1.762e-5
-1.658, -1.760e-5
-1.657, -1.757e-5
-1.656, -1.755e-5
-1.655, -1.753e-5
-1.654, -1.751e-5
-1.653, -1.749e-5
-1.652, -1.747e-5
-1.651, -1.745e-5
-1.650, -1.743e-5
-1.649, -1.740e-5
-1.648, -1.739e-5
-1.647, -1.737e-5
-1.646, -1.734e-5
-1.645, -1.733e-5
-1.644, -1.731e-5
-1.643, -1.728e-5
-1.642, -1.727e-5
-1.641, -1.725e-5
-1.640, -1.723e-5
-1.639, -1.722e-5
-1.638, -1.720e-5
-1.637, -1.718e-5
-1.636, -1.716e-5
-1.635, -1.714e-5
-1.634, -1.713e-5
-1.633, -1.711e-5
-1.632, -1.709e-5
-1.631, -1.708e-5
-1.630, -1.706e-5
-1.629, -1.704e-5
-1.628, -1.703e-5
-1.627, -1.701e-5
-1.626, -1.700e-5
-1.625, -1.698e-5
-1.624, -1.696e-5
-1.623, -1.695e-5
-1.622, -1.693e-5
-1.621, -1.692e-5
-1.620, -1.690e-5
-1.619, -1.689e-5
-1.618, -1.688e-5
-1.617, -1.686e-5
-1.616, -1.685e-5
-1.615, -1.683e-5
-1.614, -1.681e-5
-1.613, -1.680e-5
-1.612, -1.678e-5
-1.611, -1.677e-5
-1.610, -1.676e-5
-1.609, -1.674e-5
-1.608, -1.674e-5
-1.607, -1.672e-5
-1.606, -1.671e-5
-1.605, -1.670e-5
-1.604, -1.668e-5
-1.603, -1.667e-5
-1.602, -1.666e-5
-1.601, -1.664e-5
-1.600, -1.664e-5
-1.599, -1.662e-5
-1.598, -1.660e-5
-1.597, -1.660e-5
-1.596, -1.658e-5
-1.595, -1.656e-5
-1.594, -1.656e-5
-1.593, -1.655e-5
-1.592, -1.653e-5
-1.591, -1.652e-5
-1.590, -1.651e-5
-1.589, -1.650e-5
-1.588, -1.648e-5
-1.587, -1.648e-5
-1.586, -1.646e-5
-1.585, -1.645e-5
-1.584, -1.644e-5
-1.583, -1.643e-5
-1.582, -1.642e-5
-1.581, -1.641e-5
-1.580, -1.640e-5
-1.579, -1.639e-5
-1.578, -1.638e-5
-1.577, -1.636e-5
-1.576, -1.636e-5
-1.575, -1.635e-5
-1.574, -1.633e-5
-1.573, -1.632e-5
-1.572, -1.631e-5
-1.571, -1.630e-5
-1.570, -1.629e-5
-1.569, -1.628e-5
-1.568, -1.627e-5
-1.567, -1.626e-5
-1.566, -1.625e-5
-1.565, -1.624e-5
-1.564, -1.622e-5
-1.563, -1.622e-5
-1.562, -1.620e-5
-1.561, -1.620e-5
-1.560, -1.619e-5
-1.559, -1.618e-5
-1.558, -1.617e-5
-1.557, -1.616e-5
-1.556, -1.615e-5
-1.555, -1.614e-5
-1.554, -1.613e-5
-1.553, -1.612e-5
-1.552, -1.611e-5
-1.551, -1.611e-5
-1.550, -1.610e-5
-1.549, -1.610e-5
-1.548, -1.608e-5
-1.547, -1.607e-5
-1.546, -1.606e-5
-1.545, -1.605e-5
-1.544, -1.604e-5
-1.543, -1.604e-5
-1.542, -1.603e-5
-1.541, -1.602e-5
-1.540, -1.600e-5
-1.539, -1.600e-5
-1.538, -1.599e-5
-1.537, -1.598e-5
-1.536, -1.597e-5
-1.535, -1.596e-5
-1.534, -1.595e-5
-1.533, -1.595e-5
-1.532, -1.594e-5
-1.531, -1.593e-5
-1.530, -1.593e-5
-1.529, -1.592e-5
-1.528, -1.591e-5
-1.527, -1.590e-5
-1.526, -1.589e-5
-1.525, -1.589e-5
-1.524, -1.588e-5
-1.523, -1.587e-5
-1.522, -1.586e-5
-1.521, -1.585e-5
-1.520, -1.584e-5
-1.519, -1.583e-5
-1.518, -1.583e-5
-1.517, -1.582e-5
-1.516, -1.581e-5
-1.515, -1.580e-5
-1.514, -1.579e-5
-1.513, -1.579e-5
-1.512, -1.578e-5
-1.511, -1.576e-5
-1.510, -1.576e-5
-1.509, -1.576e-5
-1.508, -1.575e-5
-1.507, -1.574e-5
-1.506, -1.573e-5
-1.505, -1.572e-5
-1.504, -1.572e-5
-1.503, -1.571e-5
-1.502, -1.570e-5
-1.501, -1.570e-5
-1.500, -1.569e-5
-1.499, -1.568e-5
-1.498, -1.569e-5
-1.497, -1.567e-5
-1.496, -1.566e-5
-1.495, -1.565e-5
-1.494, -1.564e-5
-1.493, -1.564e-5
-1.492, -1.563e-5
-1.491, -1.562e-5
-1.490, -1.562e-5
-1.489, -1.560e-5
-1.488, -1.560e-5
-1.487, -1.559e-5
-1.486, -1.559e-5
-1.485, -1.559e-5
-1.484, -1.557e-5
-1.483, -1.557e-5
-1.482, -1.556e-5
-1.481, -1.555e-5
-1.480, -1.555e-5
-1.479, -1.554e-5
-1.478, -1.553e-5
-1.477, -1.553e-5
-1.476, -1.552e-5
-1.475, -1.551e-5
-1.474, -1.551e-5
-1.473, -1.550e-5
-1.472, -1.550e-5
-1.471, -1.549e-5
-1.470, -1.548e-5
-1.469, -1.548e-5
-1.468, -1.547e-5
-1.467, -1.546e-5
-1.466, -1.546e-5
-1.465, -1.545e-5
-1.464, -1.544e-5
-1.463, -1.544e-5
-1.462, -1.543e-5
-1.461, -1.543e-5
-1.460, -1.541e-5
-1.459, -1.540e-5
-1.458, -1.541e-5
-1.457, -1.540e-5
-1.456, -1.540e-5
-1.455, -1.538e-5
-1.454, -1.537e-5
-1.453, -1.538e-5
-1.452, -1.536e-5
-1.451, -1.536e-5
-1.450, -1.536e-5
-1.449, -1.535e-5
-1.448, -1.534e-5
-1.447, -1.534e-5
-1.446, -1.533e-5
-1.445, -1.533e-5
-1.444, -1.532e-5
-1.443, -1.531e-5
-1.442, -1.531e-5
-1.441, -1.530e-5
-1.440, -1.529e-5
-1.439, -1.529e-5
-1.438, -1.528e-5
-1.437, -1.528e-5
-1.436, -1.527e-5
-1.435, -1.526e-5
-1.434, -1.528e-5
-1.433, -1.526e-5
-1.432, -1.525e-5
-1.431, -1.524e-5
-1.430, -1.524e-5
-1.429, -1.523e-5
-1.428, -1.523e-5
-1.427, -1.522e-5
-1.426, -1.521e-5
-1.425, -1.521e-5
-1.424, -1.520e-5
-1.423, -1.519e-5
-1.422, -1.519e-5
-1.421, -1.520e-5
-1.420, -1.518e-5
-1.419, -1.517e-5
-1.418, -1.517e-5
-1.417, -1.516e-5
-1.416, -1.516e-5
-1.415, -1.515e-5
-1.414, -1.514e-5
-1.413, -1.514e-5
-1.412, -1.513e-5
-1.411, -1.513e-5
-1.410, -1.512e-5
-1.409, -1.512e-5
-1.408, -1.510e-5
-1.407, -1.510e-5
-1.406, -1.510e-5
-1.405, -1.510e-5
-1.404, -1.509e-5
-1.403, -1.509e-5
-1.402, -1.508e-5
-1.401, -1.507e-5
-1.400, -1.507e-5
-1.399, -1.506e-5
-1.398, -1.506e-5
-1.397, -1.506e-5
-1.396, -1.504e-5
-1.395, -1.505e-5
-1.394, -1.504e-5
-1.393, -1.503e-5
-1.392, -1.502e-5
-1.391, -1.502e-5
-1.390, -1.501e-5
-1.389, -1.501e-5
-1.388, -1.500e-5
-1.387, -1.499e-5
-1.386, -1.499e-5
-1.385, -1.499e-5
-1.384, -1.498e-5
-1.383, -1.498e-5
-1.382, -1.497e-5
-1.381, -1.497e-5
-1.380, -1.496e-5
-1.379, -1.495e-5
-1.378, -1.495e-5
-1.377, -1.494e-5
-1.376, -1.494e-5
-1.375, -1.494e-5
-1.374, -1.493e-5
-1.373, -1.493e-5
-1.372, -1.491e-5
-1.371, -1.491e-5
-1.370, -1.492e-5
-1.369, -1.491e-5
-1.368, -1.490e-5
-1.367, -1.489e-5
-1.366, -1.489e-5
-1.365, -1.488e-5
-1.364, -1.488e-5
-1.363, -1.487e-5
-1.362, -1.487e-5
-1.361, -1.486e-5
-1.360, -1.486e-5
-1.359, -1.484e-5
-1.358, -1.485e-5
-1.357, -1.483e-5
-1.356, -1.483e-5
-1.355, -1.482e-5
-1.354, -1.482e-5
-1.353, -1.482e-5
-1.352, -1.481e-5
-1.351, -1.481e-5
-1.350, -1.480e-5
-1.349, -1.480e-5
-1.348, -1.479e-5
-1.347, -1.478e-5
-1.346, -1.479e-5
-1.345, -1.478e-5
-1.344, -1.479e-5
-1.343, -1.477e-5
-1.342, -1.476e-5
-1.341, -1.476e-5
-1.340, -1.475e-5
-1.339, -1.475e-5
-1.338, -1.475e-5
-1.337, -1.474e-5
-1.336, -1.474e-5
-1.335, -1.473e-5
-1.334, -1.472e-5
-1.333, -1.472e-5
-1.332, -1.471e-5
-1.331, -1.470e-5
-1.330, -1.471e-5
-1.329, -1.470e-5
-1.328, -1.470e-5
-1.327, -1.469e-5
-1.326, -1.468e-5
-1.325, -1.469e-5
-1.324, -1.468e-5
-1.323, -1.467e-5
-1.322, -1.467e-5
-1.321, -1.466e-5
-1.320, -1.466e-5
-1.319, -1.466e-5
-1.318, -1.465e-5
-1.317, -1.465e-5
-1.316, -1.464e-5
-1.315, -1.463e-5
-1.314, -1.463e-5
-1.313, -1.463e-5
-1.312, -1.462e-5
-1.311, -1.461e-5
-1.310, -1.462e-5
-1.309, -1.461e-5
-1.308, -1.460e-5
-1.307, -1.460e-5
-1.306, -1.458e-5
-1.305, -1.459e-5
-1.304, -1.459e-5
-1.303, -1.457e-5
-1.302, -1.457e-5
-1.301, -1.457e-5
-1.300, -1.456e-5
-1.299, -1.456e-5
-1.298, -1.455e-5
-1.297, -1.455e-5
-1.296, -1.454e-5
-1.295, -1.454e-5
-1.294, -1.453e-5
-1.293, -1.454e-5
-1.292, -1.452e-5
-1.291, -1.452e-5
-1.290, -1.452e-5
-1.289, -1.451e-5
-1.288, -1.451e-5
-1.287, -1.450e-5
-1.286, -1.450e-5
-1.285, -1.449e-5
-1.284, -1.449e-5
-1.283, -1.448e-5
-1.282, -1.448e-5
-1.281, -1.447e-5
-1.280, -1.448e-5
-1.279, -1.446e-5
-1.278, -1.446e-5
-1.277, -1.446e-5
-1.276, -1.445e-5
-1.275, -1.445e-5
-1.274, -1.444e-5
-1.273, -1.444e-5
-1.272, -1.443e-5
-1.271, -1.442e-5
-1.270, -1.442e-5
-1.269, -1.442e-5
-1.268, -1.441e-5
-1.267, -1.441e-5
-1.266, -1.440e-5
-1.265, -1.440e-5
-1.264, -1.439e-5
-1.263, -1.439e-5
-1.262, -1.438e-5
-1.261, -1.438e-5
-1.260, -1.437e-5
-1.259, -1.437e-5
-1.258, -1.437e-5
-1.257, -1.436e-5
-1.256, -1.435e-5
-1.255, -1.434e-5
-1.254, -1.434e-5
-1.253, -1.434e-5
-1.252, -1.433e-5
-1.251, -1.432e-5
-1.250, -1.433e-5
-1.249, -1.432e-5
-1.248, -1.431e-5
-1.247, -1.431e-5
-1.246, -1.430e-5
-1.245, -1.430e-5
-1.244, -1.429e-5
-1.243, -1.429e-5
-1.242, -1.430e-5
-1.241, -1.428e-5
-1.240, -1.427e-5
-1.239, -1.427e-5
-1.238, -1.427e-5
-1.237, -1.426e-5
-1.236, -1.425e-5
-1.235, -1.425e-5
-1.234, -1.425e-5
-1.233, -1.424e-5
-1.232, -1.423e-5
-1.231, -1.423e-5
-1.230, -1.422e-5
-1.229, -1.425e-5
-1.228, -1.422e-5
-1.227, -1.421e-5
-1.226, -1.421e-5
-1.225, -1.420e-5
-1.224, -1.419e-5
-1.223, -1.419e-5
-1.222, -1.419e-5
-1.221, -1.418e-5
-1.220, -1.417e-5
-1.219, -1.417e-5
-1.218, -1.417e-5
-1.217, -1.415e-5
-1.216, -1.416e-5
-1.215, -1.414e-5
-1.214, -1.414e-5
-1.213, -1.414e-5
-1.212, -1.412e-5
-1.211, -1.412e-5
-1.210, -1.412e-5
-1.209, -1.411e-5
-1.208, -1.411e-5
-1.207, -1.410e-5
-1.206, -1.409e-5
-1.205, -1.409e-5
-1.204, -1.408e-5
-1.203, -1.407e-5
-1.202, -1.407e-5
-1.201, -1.406e-5
-1.200, -1.406e-5
-1.199, -1.405e-5
-1.198, -1.404e-5
-1.197, -1.404e-5
-1.196, -1.403e-5
-1.195, -1.402e-5
-1.194, -1.401e-5
-1.193, -1.401e-5
-1.192, -1.400e-5
-1.191, -1.400e-5
-1.190, -1.400e-5
-1.189, -1.399e-5
-1.188, -1.398e-5
-1.187, -1.397e-5
-1.186, -1.397e-5
-1.185, -1.396e-5
-1.184, -1.396e-5
-1.183, -1.394e-5
-1.182, -1.393e-5
-1.181, -1.394e-5
-1.180, -1.392e-5
-1.179, -1.391e-5
-1.178, -1.391e-5
-1.177, -1.390e-5
-1.176, -1.389e-5
-1.175, -1.388e-5
-1.174, -1.387e-5
-1.173, -1.387e-5
-1.172, -1.386e-5
-1.171, -1.384e-5
-1.170, -1.384e-5
-1.169, -1.383e-5
-1.168, -1.382e-5
-1.167, -1.381e-5
-1.166, -1.380e-5
-1.165, -1.380e-5
-1.164, -1.378e-5
-1.163, -1.377e-5
-1.162, -1.376e-5
-1.161, -1.376e-5
-1.160, -1.374e-5
-1.159, -1.373e-5
-1.158, -1.372e-5
-1.157, -1.371e-5
-1.156, -1.370e-5
-1.155, -1.369e-5
-1.154, -1.368e-5
-1.153, -1.367e-5
-1.152, -1.364e-5
-1.151, -1.363e-5
-1.150, -1.363e-5
-1.149, -1.362e-5
-1.148, -1.359e-5
-1.147, -1.358e-5
-1.146, -1.357e-5
-1.145, -1.355e-5
-1.144, -1.354e-5
-1.143, -1.352e-5
-1.142, -1.351e-5
-1.141, -1.350e-5
-1.140, -1.348e-5
-1.139, -1.347e-5
-1.138, -1.345e-5
-1.137, -1.342e-5
-1.136, -1.341e-5
-1.135, -1.339e-5
-1.134, -1.337e-5
-1.133, -1.336e-5
-1.132, -1.333e-5
-1.131, -1.332e-5
-1.130, -1.329e-5
-1.129, -1.327e-5
-1.128, -1.325e-5
-1.127, -1.321e-5
-1.126, -1.320e-5
-1.125, -1.318e-5
-1.124, -1.315e-5
-1.123, -1.313e-5
-1.122, -1.310e-5
-1.121, -1.308e-5
-1.120, -1.305e-5
-1.119, -1.302e-5
-1.118, -1.300e-5
-1.117, -1.297e-5
-1.116, -1.294e-5
-1.115, -1.291e-5
-1.114, -1.289e-5
-1.113, -1.285e-5
-1.112, -1.281e-5
-1.111, -1.278e-5
-1.110, -1.274e-5
-1.109, -1.270e-5
-1.108, -1.266e-5
-1.107, -1.263e-5
-1.106, -1.260e-5
-1.105, -1.256e-5
-1.104, -1.252e-5
-1.103, -1.247e-5
-1.102, -1.243e-5
-1.101, -1.236e-5
-1.100, -1.232e-5
-1.099, -1.227e-5
-1.098, -1.224e-5
-1.097, -1.219e-5
-1.096, -1.214e-5
-1.095, -1.208e-5
-1.094, -1.203e-5
-1.093, -1.199e-5
-1.092, -1.192e-5
-1.091, -1.185e-5
-1.090, -1.180e-5
-1.089, -1.173e-5
-1.088, -1.170e-5
-1.087, -1.161e-5
-1.086, -1.154e-5
-1.085, -1.148e-5
-1.084, -1.141e-5
-1.083, -1.133e-5
-1.082, -1.126e-5
-1.081, -1.119e-5
-1.080, -1.111e-5
-1.079, -1.102e-5
-1.078, -1.095e-5
-1.077, -1.086e-5
-1.076, -1.077e-5
-1.075, -1.070e-5
-1.074, -1.059e-5
-1.073, -1.049e-5
-1.072, -1.040e-5
-1.071, -1.029e-5
-1.070, -1.018e-5
-1.069, -1.010e-5
-1.068, -9.991e-6
-1.067, -9.861e-6
-1.066, -9.765e-6
-1.065, -9.648e-6
-1.064, -9.517e-6
-1.063, -9.431e-6
-1.062, -9.296e-6
-1.061, -9.171e-6
-1.060, -9.040e-6
-1.059, -8.887e-6
-1.058, -8.760e-6
-1.057, -8.625e-6
-1.056, -8.473e-6
-1.055, -8.310e-6
-1.054, -8.151e-6
-1.053, -8.017e-6
-1.052, -7.825e-6
-1.051, -7.668e-6
-1.050, -7.461e-6
-1.049, -7.297e-6
-1.048, -7.134e-6
-1.047, -6.951e-6
-1.046, -6.771e-6
-1.045, -6.581e-6
-1.044, -6.370e-6
-1.043, -6.177e-6
-1.042, -5.972e-6
-1.041, -5.762e-6
-1.040, -5.588e-6
-1.039, -5.319e-6
-1.038, -5.095e-6
-1.037, -4.950e-6
-1.036, -4.663e-6
-1.035, -4.419e-6
-1.034, -4.163e-6
-1.033, -3.952e-6
-1.032, -3.699e-6
-1.031, -3.419e-6
-1.030, -3.162e-6
-1.029, -2.905e-6
-1.028, -2.625e-6
-1.027, -2.320e-6
-1.026, -2.034e-6
-1.025, -1.783e-6
-1.024, -1.691e-6
-1.023, -1.258e-6
-1.022, -9.637e-7
-1.021, -6.685e-7
-1.020, -3.109e-7
-1.019, 2.731e-8
-1.018, 3.205e-7
-1.017, 6.401e-7
-1.016, 9.553e-7
-1.015, 1.317e-6
-1.014, 1.636e-6
-1.013, 1.935e-6
-1.012, 2.285e-6
-1.011, 2.566e-6
-1.010, 2.885e-6
-1.009, 3.283e-6
-1.008, 3.596e-6
-1.007, 3.973e-6
-1.006, 4.327e-6
-1.005, 4.637e-6
-1.004, 5.019e-6
-1.003, 5.343e-6
-1.002, 5.670e-6
-1.001, 6.010e-6
-1.000, 6.353e-6
-0.999, 6.770e-6
-0.998, 7.129e-6
-0.997, 7.444e-6
-0.996, 7.730e-6
-0.995, 8.088e-6
-0.994, 8.404e-6
-0.993, 8.701e-6
-0.992, 9.046e-6
-0.991, 9.386e-6
-0.990, 9.664e-6
-0.989, 9.918e-6
-0.988, 1.025e-5
-0.987, 1.055e-5
-0.986, 1.077e-5
-0.985, 1.106e-5
-0.984, 1.135e-5
-0.983, 1.167e-5
-0.982, 1.197e-5
-0.981, 1.218e-5
-0.980, 1.252e-5
-0.979, 1.277e-5
-0.978, 1.296e-5
-0.977, 1.326e-5
-0.976, 1.344e-5
-0.975, 1.374e-5
-0.974, 1.398e-5
-0.973, 1.413e-5
-0.972, 1.443e-5
-0.971, 1.460e-5
-0.970, 1.485e-5
-0.969, 1.507e-5
-0.968, 1.522e-5
-0.967, 1.549e-5
-0.966, 1.567e-5
-0.965, 1.585e-5
-0.964, 1.612e-5
-0.963, 1.627e-5
-0.962, 1.646e-5
-0.961, 1.666e-5
-0.960, 1.672e-5
-0.959, 1.703e-5
-0.958, 1.719e-5
-0.957, 1.737e-5
-0.956, 1.754e-5
-0.955, 1.773e-5
-0.954, 1.790e-5
-0.953, 1.808e-5
-0.952, 1.828e-5
-0.951, 1.847e-5
-0.950, 1.862e-5
-0.949, 1.879e-5
-0.948, 1.896e-5
-0.947, 1.930e-5
-0.946, 1.939e-5
-0.945, 1.953e-5
-0.944, 1.973e-5
-0.943, 1.993e-5
-0.942, 2.009e-5
-0.941, 2.023e-5
-0.940, 2.045e-5
-0.939, 2.064e-5
-0.938, 2.080e-5
-0.937, 2.093e-5
-0.936, 2.111e-5
-0.935, 2.128e-5
-0.934, 2.145e-5
-0.933, 2.160e-5
-0.932, 2.179e-5
-0.931, 2.197e-5
-0.930, 2.213e-5
-0.929, 2.231e-5
-0.928, 2.245e-5
-0.927, 2.268e-5
-0.926, 2.281e-5
-0.925, 2.297e-5
-0.924, 2.313e-5
-0.923, 2.330e-5
-0.922, 2.354e-5
-0.921, 2.363e-5
-0.920, 2.371e-5
-0.919, 2.393e-5
-0.918, 2.401e-5
-0.917, 2.417e-5
-0.916, 2.427e-5
-0.915, 2.439e-5
-0.914, 2.450e-5
-0.913, 2.465e-5
-0.912, 2.474e-5
-0.911, 2.483e-5
-0.910, 2.494e-5
-0.909, 2.488e-5
-0.908, 2.500e-5
-0.907, 2.512e-5
-0.906, 2.517e-5
-0.905, 2.526e-5
-0.904, 2.528e-5
-0.903, 2.534e-5
-0.902, 2.538e-5
-0.901, 2.537e-5
-0.900, 2.542e-5
-0.899, 2.544e-5
-0.898, 2.544e-5
-0.897, 2.544e-5
-0.896, 2.553e-5
-0.895, 2.548e-5
-0.894, 2.544e-5
-0.893, 2.541e-5
-0.892, 2.539e-5
-0.891, 2.533e-5
-0.890, 2.527e-5
-0.889, 2.522e-5
-0.888, 2.513e-5
-0.887, 2.510e-5
-0.886, 2.499e-5
-0.885, 2.492e-5
-0.884, 2.482e-5
-0.883, 2.463e-5
-0.882, 2.463e-5
-0.881, 2.452e-5
-0.880, 2.438e-5
-0.879, 2.430e-5
-0.878, 2.419e-5
-0.877, 2.405e-5
-0.876, 2.394e-5
-0.875, 2.382e-5
-0.874, 2.370e-5
-0.873, 2.357e-5
-0.872, 2.341e-5
-0.871, 2.328e-5
-0.870, 2.312e-5
-0.869, 2.295e-5
-0.868, 2.282e-5
-0.867, 2.267e-5
-0.866, 2.252e-5
-0.865, 2.235e-5
-0.864, 2.221e-5
-0.863, 2.205e-5
-0.862, 2.188e-5
-0.861, 2.171e-5
-0.860, 2.156e-5
-0.859, 2.141e-5
-0.858, 2.120e-5
-0.857, 2.105e-5
-0.856, 2.090e-5
-0.855, 2.076e-5
-0.854, 2.058e-5
-0.853, 2.040e-5
-0.852, 2.026e-5
-0.851, 2.008e-5
-0.850, 1.993e-5
-0.849, 1.976e-5
-0.848, 1.959e-5
-0.847, 1.945e-5
-0.846, 1.928e-5
-0.845, 1.915e-5
-0.844, 1.897e-5
-0.843, 1.880e-5
-0.842, 1.864e-5
-0.841, 1.848e-5
-0.840, 1.833e-5
-0.839, 1.817e-5
-0.838, 1.802e-5
-0.837, 1.786e-5
-0.836, 1.771e-5
-0.835, 1.757e-5
-0.834, 1.742e-5
-0.833, 1.728e-5
-0.832, 1.711e-5
-0.831, 1.699e-5
-0.830, 1.684e-5
-0.829, 1.670e-5
-0.828, 1.656e-5
-0.827, 1.643e-5
-0.826, 1.628e-5
-0.825, 1.614e-5
-0.824, 1.601e-5
-0.823, 1.589e-5
-0.822, 1.576e-5
-0.821, 1.562e-5
-0.820, 1.549e-5
-0.819, 1.534e-5
-0.818, 1.523e-5
-0.817, 1.511e-5
-0.816, 1.499e-5
-0.815, 1.488e-5
-0.814, 1.476e-5
-0.813, 1.463e-5
-0.812, 1.452e-5
-0.811, 1.441e-5
-0.810, 1.429e-5
-0.809, 1.418e-5
-0.808, 1.407e-5
-0.807, 1.396e-5
-0.806, 1.385e-5
-0.805, 1.375e-5
-0.804, 1.364e-5
-0.803, 1.355e-5
-0.802, 1.344e-5
-0.801, 1.334e-5
-0.800, 1.324e-5
-0.799, 1.315e-5
-0.798, 1.305e-5
-0.797, 1.295e-5
-0.796, 1.286e-5
-0.795, 1.277e-5
-0.794, 1.269e-5
-0.793, 1.258e-5
-0.792, 1.250e-5
-0.791, 1.241e-5
-0.790, 1.231e-5
-0.789, 1.222e-5
-0.788, 1.214e-5
-0.787, 1.206e-5
-0.786, 1.198e-5
-0.785, 1.189e-5
-0.784, 1.181e-5
-0.783, 1.173e-5
-0.782, 1.166e-5
-0.781, 1.156e-5
-0.780, 1.149e-5
-0.779, 1.142e-5
-0.778, 1.135e-5
-0.777, 1.127e-5
-0.776, 1.120e-5
-0.775, 1.113e-5
-0.774, 1.106e-5
-0.773, 1.098e-5
-0.772, 1.092e-5
-0.771, 1.085e-5
-0.770, 1.078e-5
-0.769, 1.071e-5
-0.768, 1.064e-5
-0.767, 1.058e-5
-0.766, 1.051e-5
-0.765, 1.045e-5
-0.764, 1.038e-5
-0.763, 1.032e-5
-0.762, 1.026e-5
-0.761, 1.020e-5
-0.760, 1.014e-5
-0.759, 1.008e-5
-0.758, 1.001e-5
-0.757, 9.962e-6
-0.756, 9.902e-6
-0.755, 9.835e-6
-0.754, 9.783e-6
-0.753, 9.729e-6
-0.752, 9.674e-6
-0.751, 9.627e-6
-0.750, 9.568e-6
-0.749, 9.511e-6
-0.748, 9.463e-6
-0.747, 9.406e-6
-0.746, 9.354e-6
-0.745, 9.310e-6
-0.744, 9.255e-6
-0.743, 9.216e-6
-0.742, 9.157e-6
-0.741, 9.107e-6
-0.740, 9.063e-6
-0.739, 9.014e-6
-0.738, 8.960e-6
-0.737, 8.911e-6
-0.736, 8.870e-6
-0.735, 8.823e-6
-0.734, 8.778e-6
-0.733, 8.728e-6
-0.732, 8.690e-6
-0.731, 8.646e-6
-0.730, 8.586e-6
-0.729, 8.553e-6
-0.728, 8.508e-6
-0.727, 8.466e-6
-0.726, 8.424e-6
-0.725, 8.383e-6
-0.724, 8.338e-6
-0.723, 8.300e-6
-0.722, 8.263e-6
-0.721, 8.218e-6
-0.720, 8.178e-6
-0.719, 8.146e-6
-0.718, 8.103e-6
-0.717, 8.071e-6
-0.716, 8.024e-6
-0.715, 7.992e-6
-0.714, 7.954e-6
-0.713, 7.914e-6
-0.712, 7.874e-6
-0.711, 7.838e-6
-0.710, 7.803e-6
-0.709, 7.762e-6
-0.708, 7.728e-6
-0.707, 7.697e-6
-0.706, 7.654e-6
-0.705, 7.624e-6
-0.704, 7.570e-6
-0.703, 7.551e-6
-0.702, 7.514e-6
-0.701, 7.478e-6
-0.700, 7.450e-6
-0.699, 7.418e-6
-0.698, 7.380e-6
-0.697, 7.350e-6
-0.696, 7.317e-6
-0.695, 7.291e-6
-0.694, 7.254e-6
-0.693, 7.223e-6
-0.692, 7.203e-6
-0.691, 7.177e-6
-0.690, 7.138e-6
-0.689, 7.104e-6
-0.688, 7.076e-6
-0.687, 7.042e-6
-0.686, 7.018e-6
-0.685, 6.980e-6
-0.684, 6.954e-6
-0.683, 6.930e-6
-0.682, 6.899e-6
-0.681, 6.871e-6
-0.680, 6.841e-6
-0.679, 6.811e-6
-0.678, 6.783e-6
-0.677, 6.755e-6
-0.676, 6.731e-6
-0.675, 6.707e-6
-0.674, 6.676e-6
-0.673, 6.648e-6
-0.672, 6.626e-6
-0.671, 6.599e-6
-0.670, 6.577e-6
-0.669, 6.539e-6
-0.668, 6.521e-6
-0.667, 6.498e-6
-0.666, 6.467e-6
-0.665, 6.444e-6
-0.664, 6.417e-6
-0.663, 6.398e-6
-0.662, 6.373e-6
-0.661, 6.341e-6
-0.660, 6.325e-6
-0.659, 6.306e-6
-0.658, 6.272e-6
-0.657, 6.256e-6
-0.656, 6.228e-6
-0.655, 6.208e-6
-0.654, 6.184e-6
-0.653, 6.146e-6
-0.652, 6.136e-6
-0.651, 6.117e-6
-0.650, 6.091e-6
-0.649, 6.072e-6
-0.648, 6.042e-6
-0.647, 6.025e-6
-0.646, 6.005e-6
-0.645, 5.981e-6
-0.644, 5.958e-6
-0.643, 5.939e-6
-0.642, 5.917e-6
-0.641, 5.899e-6
-0.640, 5.888e-6
-0.639, 5.856e-6
-0.638, 5.838e-6
-0.637, 5.812e-6
-0.636, 5.797e-6
-0.635, 5.782e-6
-0.634, 5.754e-6
-0.633, 5.736e-6
-0.632, 5.720e-6
-0.631, 5.703e-6
-0.630, 5.681e-6
-0.629, 5.658e-6
-0.628, 5.637e-6
-0.627, 5.616e-6
-0.626, 5.596e-6
-0.625, 5.584e-6
-0.624, 5.560e-6
-0.623, 5.544e-6
-0.622, 5.525e-6
-0.621, 5.500e-6
-0.620, 5.491e-6
-0.619, 5.474e-6
-0.618, 5.450e-6
-0.617, 5.436e-6
-0.616, 5.419e-6
-0.615, 5.382e-6
-0.614, 5.374e-6
-0.613, 5.355e-6
-0.612, 5.348e-6
-0.611, 5.331e-6
-0.610, 5.315e-6
-0.609, 5.293e-6
-0.608, 5.275e-6
-0.607, 5.264e-6
-0.606, 5.249e-6
-0.605, 5.227e-6
-0.604, 5.217e-6
-0.603, 5.199e-6
-0.602, 5.170e-6
-0.601, 5.161e-6
-0.600, 5.150e-6
-0.599, 5.135e-6
-0.598, 5.116e-6
-0.597, 5.095e-6
-0.596, 5.087e-6
-0.595, 5.066e-6
-0.594, 5.054e-6
-0.593, 5.034e-6
-0.592, 5.025e-6
-0.591, 5.009e-6
-0.590, 4.997e-6
-0.589, 4.990e-6
-0.588, 4.971e-6
-0.587, 4.954e-6
-0.586, 4.937e-6
-0.585, 4.919e-6
-0.584, 4.907e-6
-0.583, 4.891e-6
-0.582, 4.881e-6
-0.581, 4.866e-6
-0.580, 4.854e-6
-0.579, 4.838e-6
-0.578, 4.821e-6
-0.577, 4.809e-6
-0.576, 4.787e-6
-0.575, 4.777e-6
-0.574, 4.770e-6
-0.573, 4.748e-6
-0.572, 4.740e-6
-0.571, 4.728e-6
-0.570, 4.711e-6
-0.569, 4.698e-6
-0.568, 4.681e-6
-0.567, 4.678e-6
-0.566, 4.660e-6
-0.565, 4.649e-6
-0.564, 4.637e-6
-0.563, 4.620e-6
-0.562, 4.610e-6
-0.561, 4.595e-6
-0.560, 4.583e-6
-0.559, 4.574e-6
-0.558, 4.558e-6
-0.557, 4.541e-6
-0.556, 4.535e-6
-0.555, 4.522e-6
-0.554, 4.511e-6
-0.553, 4.499e-6
-0.552, 4.483e-6
-0.551, 4.470e-6
-0.550, 4.458e-6
-0.549, 4.444e-6
-0.548, 4.436e-6
-0.547, 4.428e-6
-0.546, 4.410e-6
-0.545, 4.404e-6
-0.544, 4.389e-6
-0.543, 4.383e-6
-0.542, 4.371e-6
-0.541, 4.358e-6
-0.540, 4.349e-6
-0.539, 4.339e-6
-0.538, 4.337e-6
-0.537, 4.313e-6
-0.536, 4.306e-6
-0.535, 4.302e-6
-0.534, 4.289e-6
-0.533, 4.274e-6
-0.532, 4.270e-6
-0.531, 4.253e-6
-0.530, 4.245e-6
-0.529, 4.232e-6
-0.528, 4.228e-6
-0.527, 4.215e-6
-0.526, 4.209e-6
-0.525, 4.184e-6
-0.524, 4.181e-6
-0.523, 4.172e-6
-0.522, 4.164e-6
-0.521, 4.152e-6
-0.520, 4.141e-6
-0.519, 4.135e-6
-0.518, 4.118e-6
-0.517, 4.115e-6
-0.516, 4.105e-6
-0.515, 4.095e-6
-0.514, 4.081e-6
-0.513, 4.071e-6
-0.512, 4.074e-6
-0.511, 4.056e-6
-0.510, 4.047e-6
-0.509, 4.034e-6
-0.508, 4.029e-6
-0.507, 4.024e-6
-0.506, 4.012e-6
-0.505, 3.999e-6
-0.504, 3.995e-6
-0.503, 3.985e-6
-0.502, 3.976e-6
-0.501, 3.963e-6
-0.500, 3.959e-6
-0.499, 3.936e-6
-0.498, 3.935e-6
-0.497, 3.930e-6
-0.496, 3.918e-6
-0.495, 3.915e-6
-0.494, 3.906e-6
-0.493, 3.893e-6
-0.492, 3.889e-6
-0.491, 3.882e-6
-0.490, 3.866e-6
-0.489, 3.861e-6
-0.488, 3.851e-6
-0.487, 3.858e-6
-0.486, 3.839e-6
-0.485, 3.827e-6
-0.484, 3.816e-6
-0.483, 3.809e-6
-0.482, 3.797e-6
-0.481, 3.794e-6
-0.480, 3.789e-6
-0.479, 3.782e-6
-0.478, 3.771e-6
-0.477, 3.757e-6
-0.476, 3.759e-6
-0.475, 3.749e-6
-0.474, 3.727e-6
-0.473, 3.727e-6
-0.472, 3.720e-6
-0.471, 3.714e-6
-0.470, 3.704e-6
-0.469, 3.698e-6
-0.468, 3.691e-6
-0.467, 3.684e-6
-0.466, 3.674e-6
-0.465, 3.671e-6
-0.464, 3.661e-6
-0.463, 3.654e-6
-0.462, 3.648e-6
-0.461, 3.627e-6
-0.460, 3.636e-6
-0.459, 3.625e-6
-0.458, 3.615e-6
-0.457, 3.606e-6
-0.456, 3.600e-6
-0.455, 3.593e-6
-0.454, 3.589e-6
-0.453, 3.572e-6
-0.452, 3.573e-6
-0.451, 3.568e-6
-0.450, 3.550e-6
-0.449, 3.551e-6
-0.448, 3.531e-6
-0.447, 3.541e-6
-0.446, 3.528e-6
-0.445, 3.522e-6
-0.444, 3.516e-6
-0.443, 3.514e-6
-0.442, 3.503e-6
-0.441, 3.490e-6
-0.440, 3.486e-6
-0.439, 3.484e-6
-0.438, 3.472e-6
-0.437, 3.464e-6
-0.436, 3.462e-6
-0.435, 3.469e-6
-0.434, 3.449e-6
-0.433, 3.438e-6
-0.432, 3.437e-6
-0.431, 3.430e-6
-0.430, 3.426e-6
-0.429, 3.416e-6
-0.428, 3.408e-6
-0.427, 3.409e-6
-0.426, 3.394e-6
-0.425, 3.395e-6
-0.424, 3.387e-6
-0.423, 3.372e-6
-0.422, 3.373e-6
-0.421, 3.360e-6
-0.420, 3.360e-6
-0.419, 3.353e-6
-0.418, 3.350e-6
-0.417, 3.342e-6
-0.416, 3.331e-6
-0.415, 3.331e-6
-0.414, 3.325e-6
-0.413, 3.315e-6
-0.412, 3.315e-6
-0.411, 3.310e-6
-0.410, 3.262e-6
-0.409, 3.285e-6
-0.408, 3.280e-6
-0.407, 3.279e-6
-0.406, 3.274e-6
-0.405, 3.265e-6
-0.404, 3.267e-6
-0.403, 3.261e-6
-0.402, 3.253e-6
-0.401, 3.248e-6
-0.400, 3.240e-6
-0.399, 3.236e-6
-0.398, 3.232e-6
-0.397, 3.211e-6
-0.396, 3.216e-6
-0.395, 3.213e-6
-0.394, 3.203e-6
-0.393, 3.200e-6
-0.392, 3.196e-6
-0.391, 3.190e-6
-0.390, 3.181e-6
-0.389, 3.177e-6
-0.388, 3.176e-6
-0.387, 3.167e-6
-0.386, 3.157e-6
-0.385, 3.153e-6
-0.384, 3.172e-6
-0.383, 3.151e-6
-0.382, 3.143e-6
-0.381, 3.135e-6
-0.380, 3.128e-6
-0.379, 3.127e-6
-0.378, 3.113e-6
-0.377, 3.111e-6
-0.376, 3.104e-6
-0.375, 3.104e-6
-0.374, 3.094e-6
-0.373, 3.085e-6
-0.372, 3.085e-6
-0.371, 3.072e-6
-0.370, 3.073e-6
-0.369, 3.066e-6
-0.368, 3.068e-6
-0.367, 3.057e-6
-0.366, 3.058e-6
-0.365, 3.047e-6
-0.364, 3.045e-6
-0.363, 3.045e-6
-0.362, 3.038e-6
-0.361, 3.033e-6
-0.360, 3.026e-6
-0.359, 3.025e-6
-0.358, 3.020e-6
-0.357, 3.013e-6
-0.356, 3.010e-6
-0.355, 3.006e-6
-0.354, 3.005e-6
-0.353, 2.991e-6
-0.352, 2.988e-6
-0.351, 2.985e-6
-0.350, 2.981e-6
-0.349, 2.977e-6
-0.348, 2.973e-6
-0.347, 2.976e-6
-0.346, 2.958e-6
-0.345, 2.957e-6
-0.344, 2.950e-6
-0.343, 2.950e-6
-0.342, 2.949e-6
-0.341, 2.938e-6
-0.340, 2.940e-6
-0.339, 2.936e-6
-0.338, 2.930e-6
-0.337, 2.928e-6
-0.336, 2.920e-6
-0.335, 2.919e-6
-0.334, 2.916e-6
-0.333, 2.920e-6
-0.332, 2.912e-6
-0.331, 2.907e-6
-0.330, 2.897e-6
-0.329, 2.897e-6
-0.328, 2.891e-6
-0.327, 2.891e-6
-0.326, 2.883e-6
-0.325, 2.877e-6
-0.324, 2.881e-6
-0.323, 2.870e-6
-0.322, 2.869e-6
-0.321, 2.857e-6
-0.320, 2.848e-6
-0.319, 2.851e-6
-0.318, 2.852e-6
-0.317, 2.847e-6
-0.316, 2.847e-6
-0.315, 2.843e-6
-0.314, 2.836e-6
-0.313, 2.833e-6
-0.312, 2.830e-6
-0.311, 2.832e-6
-0.310, 2.823e-6
-0.309, 2.821e-6
-0.308, 2.821e-6
-0.307, 2.830e-6
-0.306, 2.815e-6
-0.305, 2.810e-6
-0.304, 2.805e-6
-0.303, 2.808e-6
-0.302, 2.807e-6
-0.301, 2.796e-6
-0.300, 2.798e-6
-0.299, 2.796e-6
-0.298, 2.788e-6
-0.297, 2.787e-6
-0.296, 2.784e-6
-0.295, 2.777e-6
-0.294, 2.776e-6
-0.293, 2.771e-6
-0.292, 2.777e-6
-0.291, 2.773e-6
-0.290, 2.764e-6
-0.289, 2.767e-6
-0.288, 2.758e-6
-0.287, 2.761e-6
-0.286, 2.761e-6
-0.285, 2.756e-6
-0.284, 2.757e-6
-0.283, 2.754e-6
-0.282, 2.760e-6
-0.281, 2.752e-6
-0.280, 2.742e-6
-0.279, 2.743e-6
-0.278, 2.745e-6
-0.277, 2.739e-6
-0.276, 2.733e-6
-0.275, 2.740e-6
-0.274, 2.732e-6
-0.273, 2.728e-6
-0.272, 2.733e-6
-0.271, 2.729e-6
-0.270, 2.728e-6
-0.269, 2.713e-6
-0.268, 2.717e-6
-0.267, 2.719e-6
-0.266, 2.714e-6
-0.265, 2.722e-6
-0.264, 2.711e-6
-0.263, 2.715e-6
-0.262, 2.709e-6
-0.261, 2.704e-6
-0.260, 2.708e-6
-0.259, 2.708e-6
-0.258, 2.703e-6
-0.257, 2.709e-6
-0.256, 2.690e-6
-0.255, 2.705e-6
-0.254, 2.700e-6
-0.253, 2.695e-6
-0.252, 2.697e-6
-0.251, 2.698e-6
-0.250, 2.696e-6
-0.249, 2.694e-6
-0.248, 2.691e-6
-0.247, 2.692e-6
-0.246, 2.691e-6
-0.245, 2.686e-6
-0.244, 2.687e-6
-0.243, 2.681e-6
-0.242, 2.686e-6
-0.241, 2.684e-6
-0.240, 2.679e-6
-0.239, 2.684e-6
-0.238, 2.687e-6
-0.237, 2.679e-6
-0.236, 2.679e-6
-0.235, 2.687e-6
-0.234, 2.681e-6
-0.233, 2.678e-6
-0.232, 2.679e-6
-0.231, 2.691e-6
-0.230, 2.688e-6
-0.229, 2.677e-6
-0.228, 2.682e-6
-0.227, 2.683e-6
-0.226, 2.674e-6
-0.225, 2.681e-6
-0.224, 2.677e-6
-0.223, 2.680e-6
-0.222, 2.678e-6
-0.221, 2.683e-6
-0.220, 2.680e-6
-0.219, 2.677e-6
-0.218, 2.673e-6
-0.217, 2.682e-6
-0.216, 2.674e-6
-0.215, 2.680e-6
-0.214, 2.686e-6
-0.213, 2.682e-6
-0.212, 2.684e-6
-0.211, 2.683e-6
-0.210, 2.683e-6
-0.209, 2.681e-6
-0.208, 2.684e-6
-0.207, 2.686e-6
-0.206, 2.684e-6
-0.205, 2.653e-6
-0.204, 2.679e-6
-0.203, 2.683e-6
-0.202, 2.680e-6
-0.201, 2.680e-6
-0.200, 2.684e-6
-0.199, 2.682e-6
-0.198, 2.686e-6
-0.197, 2.681e-6
-0.196, 2.684e-6
-0.195, 2.686e-6
-0.194, 2.682e-6
-0.193, 2.688e-6
-0.192, 2.677e-6
-0.191, 2.681e-6
-0.190, 2.681e-6
-0.189, 2.682e-6
-0.188, 2.688e-6
-0.187, 2.688e-6
-0.186, 2.680e-6
-0.185, 2.682e-6
-0.184, 2.679e-6
-0.183, 2.686e-6
-0.182, 2.688e-6
-0.181, 2.677e-6
-0.180, 2.690e-6
-0.179, 2.698e-6
-0.178, 2.689e-6
-0.177, 2.689e-6
-0.176, 2.686e-6
-0.175, 2.688e-6
-0.174, 2.689e-6
-0.173, 2.679e-6
-0.172, 2.686e-6
-0.171, 2.684e-6
-0.170, 2.682e-6
-0.169, 2.680e-6
-0.168, 2.679e-6
-0.167, 2.681e-6
-0.166, 2.677e-6
-0.165, 2.676e-6
-0.164, 2.678e-6
-0.163, 2.684e-6
-0.162, 2.682e-6
-0.161, 2.676e-6
-0.160, 2.673e-6
-0.159, 2.682e-6
-0.158, 2.677e-6
-0.157, 2.672e-6
-0.156, 2.677e-6
-0.155, 2.677e-6
-0.154, 2.673e-6
-0.153, 2.676e-6
-0.152, 2.668e-6
-0.151, 2.669e-6
-0.150, 2.673e-6
-0.149, 2.665e-6
-0.148, 2.669e-6
-0.147, 2.673e-6
-0.146, 2.663e-6
-0.145, 2.663e-6
-0.144, 2.666e-6
-0.143, 2.665e-6
-0.142, 2.669e-6
-0.141, 2.646e-6
-0.140, 2.663e-6
-0.139, 2.659e-6
-0.138, 2.657e-6
-0.137, 2.655e-6
-0.136, 2.658e-6
-0.135, 2.669e-6
-0.134, 2.657e-6
-0.133, 2.652e-6
-0.132, 2.659e-6
-0.131, 2.653e-6
-0.130, 2.653e-6
-0.129, 2.647e-6
-0.128, 2.664e-6
-0.127, 2.654e-6
-0.126, 2.649e-6
-0.125, 2.644e-6
-0.124, 2.650e-6
-0.123, 2.655e-6
-0.122, 2.637e-6
-0.121, 2.639e-6
-0.120, 2.640e-6
-0.119, 2.642e-6
-0.118, 2.642e-6
-0.117, 2.628e-6
-0.116, 2.643e-6
-0.115, 2.631e-6
-0.114, 2.627e-6
-0.113, 2.635e-6
-0.112, 2.632e-6
-0.111, 2.631e-6
-0.110, 2.628e-6
-0.109, 2.625e-6
-0.108, 2.628e-6
-0.107, 2.630e-6
-0.106, 2.624e-6
-0.105, 2.624e-6
-0.104, 2.622e-6
-0.103, 2.627e-6
-0.102, 2.625e-6
-0.101, 2.622e-6
-0.100, 2.622e-6
-0.099, 2.618e-6
-0.098, 2.618e-6
-0.097, 2.616e-6
-0.096, 2.609e-6
-0.095, 2.613e-6
-0.094, 2.618e-6
-0.093, 2.610e-6
-0.092, 2.609e-6
-0.091, 2.612e-6
-0.090, 2.595e-6
-0.089, 2.605e-6
-0.088, 2.602e-6
-0.087, 2.606e-6
-0.086, 2.598e-6
-0.085, 2.601e-6
-0.084, 2.602e-6
-0.083, 2.601e-6
-0.082, 2.594e-6
-0.081, 2.595e-6
-0.080, 2.596e-6
-0.079, 2.595e-6
-0.078, 2.594e-6
-0.077, 2.598e-6
-0.076, 2.600e-6
-0.075, 2.596e-6
-0.074, 2.588e-6
-0.073, 2.594e-6
-0.072, 2.592e-6
-0.071, 2.582e-6
-0.070, 2.583e-6
-0.069, 2.584e-6
-0.068, 2.590e-6
-0.067, 2.587e-6
-0.066, 2.573e-6
-0.065, 2.582e-6
-0.064, 2.568e-6
-0.063, 2.576e-6
-0.062, 2.580e-6
-0.061, 2.572e-6
-0.060, 2.581e-6
-0.059, 2.574e-6
-0.058, 2.573e-6
-0.057, 2.576e-6
-0.056, 2.570e-6
-0.055, 2.572e-6
-0.054, 2.572e-6
-0.053, 2.568e-6
-0.052, 2.574e-6
-0.051, 2.574e-6
-0.050, 2.563e-6
-0.049, 2.561e-6
-0.048, 2.569e-6
-0.047, 2.568e-6
-0.046, 2.561e-6
-0.045, 2.559e-6
-0.044, 2.567e-6
-0.043, 2.565e-6
-0.042, 2.561e-6
-0.041, 2.559e-6
-0.040, 2.561e-6
-0.039, 2.554e-6
-0.038, 2.555e-6
-0.037, 2.557e-6
-0.036, 2.552e-6
-0.035, 2.563e-6
-0.034, 2.554e-6
-0.033, 2.554e-6
-0.032, 2.552e-6
-0.031, 2.555e-6
-0.030, 2.552e-6
-0.029, 2.553e-6
-0.028, 2.555e-6
-0.027, 2.553e-6
-0.026, 2.563e-6
-0.025, 2.553e-6
-0.024, 2.552e-6
-0.023, 2.552e-6
-0.022, 2.557e-6
-0.021, 2.549e-6
-0.020, 2.553e-6
-0.019, 2.545e-6
-0.018, 2.552e-6
-0.017, 2.551e-6
-0.016, 2.550e-6
-0.015, 2.550e-6
-0.014, 2.553e-6
-0.013, 2.534e-6
-0.012, 2.551e-6
-0.011, 2.548e-6
-0.010, 2.550e-6
-0.009, 2.548e-6
-0.008, 2.545e-6
-0.007, 2.553e-6
-0.006, 2.549e-6
-0.005, 2.547e-6
-0.004, 2.547e-6
-0.003, 2.554e-6
-0.002, 2.555e-6
-0.001, 2.550e-6
-0.000, 2.510e-6
0.001, 2.547e-6
0.002, 2.548e-6
0.003, 2.547e-6
0.004, 2.550e-6
0.005, 2.555e-6
0.006, 2.552e-6
0.007, 2.553e-6
0.008, 2.551e-6
0.009, 2.554e-6
0.010, 2.563e-6
0.011, 2.550e-6
0.012, 2.555e-6
0.013, 2.553e-6
0.014, 2.553e-6
0.015, 2.565e-6
0.016, 2.556e-6
0.017, 2.564e-6
0.018, 2.564e-6
0.019, 2.559e-6
0.020, 2.566e-6
0.021, 2.569e-6
0.022, 2.574e-6
0.023, 2.570e-6
0.024, 2.570e-6
0.025, 2.584e-6
0.026, 2.581e-6
0.027, 2.577e-6
0.028, 2.580e-6
0.029, 2.586e-6
0.030, 2.583e-6
0.031, 2.584e-6
0.032, 2.581e-6
0.033, 2.587e-6
0.034, 2.593e-6
0.035, 2.600e-6
0.036, 2.595e-6
0.037, 2.600e-6
0.038, 2.589e-6
0.039, 2.597e-6
0.040, 2.603e-6
0.041, 2.603e-6
0.042, 2.609e-6
0.043, 2.605e-6
0.044, 2.612e-6
0.045, 2.616e-6
0.046, 2.620e-6
0.047, 2.621e-6
0.048, 2.624e-6
0.049, 2.623e-6
0.050, 2.631e-6
0.051, 2.625e-6
0.052, 2.635e-6
0.053, 2.637e-6
0.054, 2.636e-6
0.055, 2.645e-6
0.056, 2.647e-6
0.057, 2.646e-6
0.058, 2.655e-6
0.059, 2.655e-6
0.060, 2.664e-6
0.061, 2.662e-6
0.062, 2.667e-6
0.063, 2.672e-6
0.064, 2.661e-6
0.065, 2.677e-6
0.066, 2.678e-6
0.067, 2.680e-6
0.068, 2.684e-6
0.069, 2.690e-6
0.070, 2.692e-6
0.071, 2.699e-6
0.072, 2.697e-6
0.073, 2.701e-6
0.074, 2.706e-6
0.075, 2.710e-6
0.076, 2.720e-6
0.077, 2.731e-6
0.078, 2.719e-6
0.079, 2.722e-6
0.080, 2.726e-6
0.081, 2.734e-6
0.082, 2.739e-6
0.083, 2.736e-6
0.084, 2.741e-6
0.085, 2.756e-6
0.086, 2.750e-6
0.087, 2.757e-6
0.088, 2.755e-6
0.089, 2.761e-6
0.090, 2.764e-6
0.091, 2.760e-6
0.092, 2.770e-6
0.093, 2.778e-6
0.094, 2.778e-6
0.095, 2.780e-6
0.096, 2.789e-6
0.097, 2.799e-6
0.098, 2.793e-6
0.099, 2.794e-6
0.100, 2.807e-6
0.101, 2.808e-6
0.102, 2.821e-6
0.103, 2.816e-6
0.104, 2.812e-6
0.105, 2.828e-6
0.106, 2.825e-6
0.107, 2.826e-6
0.108, 2.835e-6
0.109, 2.837e-6
0.110, 2.838e-6
0.111, 2.842e-6
0.112, 2.850e-6
0.113, 2.850e-6
0.114, 2.858e-6
0.115, 2.843e-6
0.116, 2.864e-6
0.117, 2.865e-6
0.118, 2.867e-6
0.119, 2.870e-6
0.120, 2.879e-6
0.121, 2.879e-6
0.122, 2.880e-6
0.123, 2.883e-6
0.124, 2.893e-6
0.125, 2.899e-6
0.126, 2.893e-6
0.127, 2.905e-6
0.128, 2.918e-6
0.129, 2.906e-6
0.130, 2.915e-6
0.131, 2.912e-6
0.132, 2.923e-6
0.133, 2.927e-6
0.134, 2.919e-6
0.135, 2.928e-6
0.136, 2.929e-6
0.137, 2.943e-6
0.138, 2.937e-6
0.139, 2.937e-6
0.140, 2.948e-6
0.141, 2.936e-6
0.142, 2.944e-6
0.143, 2.953e-6
0.144, 2.952e-6
0.145, 2.960e-6
0.146, 2.960e-6
0.147, 2.957e-6
0.148, 2.972e-6
0.149, 2.973e-6
0.150, 2.979e-6
0.151, 2.977e-6
0.152, 2.981e-6
0.153, 2.982e-6
0.154, 2.985e-6
0.155, 2.989e-6
0.156, 2.996e-6
0.157, 2.997e-6
0.158, 2.999e-6
0.159, 3.000e-6
0.160, 3.001e-6
0.161, 3.011e-6
0.162, 3.012e-6
0.163, 3.009e-6
0.164, 3.023e-6
0.165, 3.021e-6
0.166, 3.010e-6
0.167, 3.025e-6
0.168, 3.028e-6
0.169, 3.033e-6
0.170, 3.034e-6
0.171, 3.026e-6
0.172, 3.043e-6
0.173, 3.043e-6
0.174, 3.042e-6
0.175, 3.043e-6
0.176, 3.046e-6
0.177, 3.051e-6
0.178, 3.056e-6
0.179, 3.066e-6
0.180, 3.064e-6
0.181, 3.064e-6
0.182, 3.067e-6
0.183, 3.069e-6
0.184, 3.070e-6
0.185, 3.076e-6
0.186, 3.076e-6
0.187, 3.077e-6
0.188, 3.087e-6
0.189, 3.087e-6
0.190, 3.090e-6
0.191, 3.091e-6
0.192, 3.083e-6
0.193, 3.098e-6
0.194, 3.104e-6
0.195, 3.096e-6
0.196, 3.108e-6
0.197, 3.114e-6
0.198, 3.113e-6
0.199, 3.116e-6
0.200, 3.121e-6
0.201, 3.127e-6
0.202, 3.134e-6
0.203, 3.138e-6
0.204, 3.134e-6
0.205, 3.117e-6
0.206, 3.139e-6
0.207, 3.143e-6
0.208, 3.150e-6
0.209, 3.157e-6
0.210, 3.162e-6
0.211, 3.158e-6
0.212, 3.174e-6
0.213, 3.176e-6
0.214, 3.174e-6
0.215, 3.184e-6
0.216, 3.190e-6
0.217, 3.181e-6
0.218, 3.191e-6
0.219, 3.197e-6
0.220, 3.209e-6
0.221, 3.212e-6
0.222, 3.212e-6
0.223, 3.220e-6
0.224, 3.222e-6
0.225, 3.235e-6
0.226, 3.238e-6
0.227, 3.241e-6
0.228, 3.247e-6
0.229, 3.257e-6
0.230, 3.272e-6
0.231, 3.269e-6
0.232, 3.276e-6
0.233, 3.288e-6
0.234, 3.286e-6
0.235, 3.292e-6
0.236, 3.301e-6
0.237, 3.305e-6
0.238, 3.309e-6
0.239, 3.319e-6
0.240, 3.321e-6
0.241, 3.335e-6
0.242, 3.342e-6
0.243, 3.329e-6
0.244, 3.353e-6
0.245, 3.364e-6
0.246, 3.365e-6
0.247, 3.378e-6
0.248, 3.384e-6
0.249, 3.396e-6
0.250, 3.403e-6
0.251, 3.411e-6
0.252, 3.421e-6
0.253, 3.431e-6
0.254, 3.438e-6
0.255, 3.445e-6
0.256, 3.452e-6
0.257, 3.472e-6
0.258, 3.482e-6
0.259, 3.484e-6
0.260, 3.504e-6
0.261, 3.515e-6
0.262, 3.523e-6
0.263, 3.534e-6
0.264, 3.546e-6
0.265, 3.560e-6
0.266, 3.572e-6
0.267, 3.578e-6
0.268, 3.599e-6
0.269, 3.599e-6
0.270, 3.621e-6
0.271, 3.636e-6
0.272, 3.645e-6
0.273, 3.670e-6
0.274, 3.679e-6
0.275, 3.693e-6
0.276, 3.706e-6
0.277, 3.725e-6
0.278, 3.738e-6
0.279, 3.760e-6
0.280, 3.769e-6
0.281, 3.805e-6
0.282, 3.814e-6
0.283, 3.828e-6
0.284, 3.849e-6
0.285, 3.868e-6
0.286, 3.884e-6
0.287, 3.901e-6
0.288, 3.919e-6
0.289, 3.941e-6
0.290, 3.960e-6
0.291, 3.976e-6
0.292, 4.005e-6
0.293, 4.022e-6
0.294, 4.032e-6
0.295, 4.057e-6
0.296, 4.078e-6
0.297, 4.107e-6
0.298, 4.132e-6
0.299, 4.152e-6
0.300, 4.181e-6
0.301, 4.204e-6
0.302, 4.227e-6
0.303, 4.256e-6
0.304, 4.277e-6
0.305, 4.306e-6
0.306, 4.333e-6
0.307, 4.371e-6
0.308, 4.394e-6
0.309, 4.424e-6
0.310, 4.451e-6
0.311, 4.481e-6
0.312, 4.519e-6
0.313, 4.547e-6
0.314, 4.582e-6
0.315, 4.618e-6
0.316, 4.652e-6
0.317, 4.694e-6
0.318, 4.728e-6
0.319, 4.767e-6
0.320, 4.789e-6
0.321, 4.850e-6
0.322, 4.887e-6
0.323, 4.920e-6
0.324, 4.982e-6
0.325, 5.024e-6
0.326, 5.062e-6
0.327, 5.121e-6
0.328, 5.171e-6
0.329, 5.229e-6
0.330, 5.283e-6
0.331, 5.327e-6
0.332, 5.396e-6
0.333, 5.481e-6
0.334, 5.527e-6
0.335, 5.588e-6
0.336, 5.655e-6
0.337, 5.728e-6
0.338, 5.789e-6
0.339, 5.862e-6
0.340, 5.942e-6
0.341, 6.023e-6
0.342, 6.115e-6
0.343, 6.195e-6
0.344, 6.279e-6
0.345, 6.367e-6
0.346, 6.451e-6
0.347, 6.552e-6
0.348, 6.666e-6
0.349, 6.776e-6
0.350, 6.884e-6
0.351, 6.994e-6
0.352, 7.108e-6
0.353, 7.240e-6
0.354, 7.366e-6
0.355, 7.487e-6
0.356, 7.629e-6
0.357, 7.785e-6
0.358, 7.918e-6
0.359, 8.069e-6
0.360, 8.234e-6
0.361, 8.390e-6
0.362, 8.573e-6
0.363, 8.736e-6
0.364, 8.915e-6
0.365, 9.120e-6
0.366, 9.307e-6
0.367, 9.516e-6
0.368, 9.712e-6
0.369, 9.944e-6
0.370, 1.016e-5
0.371, 1.034e-5
0.372, 1.062e-5
0.373, 1.088e-5
0.374, 1.113e-5
0.375, 1.139e-5
0.376, 1.166e-5
0.377, 1.198e-5
0.378, 1.226e-5
0.379, 1.258e-5
0.380, 1.292e-5
0.381, 1.323e-5
0.382, 1.357e-5
0.383, 1.394e-5
0.384, 1.438e-5
0.385, 1.473e-5
0.386, 1.510e-5
0.387, 1.549e-5
0.388, 1.594e-5
0.389, 1.635e-5
0.390, 1.679e-5
0.391, 1.725e-5
0.392, 1.771e-5
0.393, 1.827e-5
0.394, 1.875e-5
0.395, 1.930e-5
0.396, 1.983e-5
0.397, 2.031e-5
0.398, 2.096e-5
0.399, 2.153e-5
0.400, 2.216e-5
0.401, 2.283e-5
0.402, 2.346e-5
0.403, 2.417e-5
0.404, 2.489e-5
0.405, 2.565e-5
0.406, 2.638e-5
0.407, 2.712e-5
0.408, 2.787e-5
0.409, 2.854e-5
0.410, 2.901e-5
0.411, 3.012e-5
0.412, 3.114e-5
0.413, 3.202e-5
0.414, 3.300e-5
0.415, 3.395e-5
0.416, 3.487e-5
0.417, 3.594e-5
0.418, 3.696e-5
0.419, 3.800e-5
0.420, 3.911e-5
0.421, 4.023e-5
0.422, 4.123e-5
0.423, 4.238e-5
0.424, 4.350e-5
0.425, 4.479e-5
0.426, 4.608e-5
0.427, 4.731e-5
0.428, 4.865e-5
0.429, 4.993e-5
0.430, 5.127e-5
0.431, 5.261e-5
0.432, 5.393e-5
0.433, 5.541e-5
0.434, 5.684e-5
0.435, 5.845e-5
0.436, 5.983e-5
0.437, 6.125e-5
0.438, 6.275e-5
0.439, 6.430e-5
0.440, 6.568e-5
0.441, 6.727e-5
0.442, 6.884e-5
0.443, 7.030e-5
0.444, 7.193e-5
0.445, 7.337e-5
0.446, 7.505e-5
0.447, 7.651e-5
0.448, 7.755e-5
0.449, 7.967e-5
0.450, 8.113e-5
0.451, 8.260e-5
0.452, 8.430e-5
0.453, 8.570e-5
0.454, 8.759e-5
0.455, 8.892e-5
0.456, 9.018e-5
0.457, 9.189e-5
0.458, 9.332e-5
0.459, 9.467e-5
0.460, 9.628e-5
0.461, 9.742e-5
0.462, 9.911e-5
0.463, 1.003e-4
0.464, 1.016e-4
0.465, 1.029e-4
0.466, 1.043e-4
0.467, 1.052e-4
0.468, 1.065e-4
0.469, 1.077e-4
0.470, 1.090e-4
0.471, 1.100e-4
0.472, 1.109e-4
0.473, 1.118e-4
0.474, 1.123e-4
0.475, 1.133e-4
0.476, 1.142e-4
0.477, 1.151e-4
0.478, 1.159e-4
0.479, 1.166e-4
0.480, 1.172e-4
0.481, 1.180e-4
0.482, 1.186e-4
0.483, 1.189e-4
0.484, 1.195e-4
0.485, 1.198e-4
0.486, 1.206e-4
0.487, 1.210e-4
0.488, 1.209e-4
0.489, 1.213e-4
0.490, 1.215e-4
0.491, 1.215e-4
0.492, 1.217e-4
0.493, 1.217e-4
0.494, 1.217e-4
0.495, 1.219e-4
0.496, 1.216e-4
0.497, 1.217e-4
0.498, 1.216e-4
0.499, 1.212e-4
0.500, 1.211e-4
0.501, 1.209e-4
0.502, 1.208e-4
0.503, 1.205e-4
0.504, 1.202e-4
0.505, 1.199e-4
0.506, 1.195e-4
0.507, 1.192e-4
0.508, 1.189e-4
0.509, 1.185e-4
0.510, 1.181e-4
0.511, 1.177e-4
0.512, 1.174e-4
0.513, 1.168e-4
0.514, 1.164e-4
0.515, 1.158e-4
0.516, 1.153e-4
0.517, 1.148e-4
0.518, 1.143e-4
0.519, 1.137e-4
0.520, 1.132e-4
0.521, 1.127e-4
0.522, 1.121e-4
0.523, 1.115e-4
0.524, 1.109e-4
0.525, 1.102e-4
0.526, 1.098e-4
0.527, 1.091e-4
0.528, 1.085e-4
0.529, 1.080e-4
0.530, 1.074e-4
0.531, 1.068e-4
0.532, 1.062e-4
0.533, 1.056e-4
0.534, 1.050e-4
0.535, 1.044e-4
0.536, 1.038e-4
0.537, 1.033e-4
0.538, 1.027e-4
0.539, 1.021e-4
0.540, 1.015e-4
0.541, 1.009e-4
0.542, 1.003e-4
0.543, 9.976e-5
0.544, 9.918e-5
0.545, 9.859e-5
0.546, 9.804e-5
0.547, 9.747e-5
0.548, 9.691e-5
0.549, 9.638e-5
0.550, 9.579e-5
0.551, 9.526e-5
0.552, 9.472e-5
0.553, 9.420e-5
0.554, 9.368e-5
0.555, 9.315e-5
0.556, 9.264e-5
0.557, 9.212e-5
0.558, 9.162e-5
0.559, 9.113e-5
0.560, 9.062e-5
0.561, 9.015e-5
0.562, 8.967e-5
0.563, 8.917e-5
0.564, 8.872e-5
0.565, 8.826e-5
0.566, 8.779e-5
0.567, 8.734e-5
0.568, 8.688e-5
0.569, 8.645e-5
0.570, 8.601e-5
0.571, 8.555e-5
0.572, 8.515e-5
0.573, 8.472e-5
0.574, 8.430e-5
0.575, 8.390e-5
0.576, 8.346e-5
0.577, 8.309e-5
0.578, 8.268e-5
0.579, 8.229e-5
0.580, 8.191e-5
0.581, 8.152e-5
0.582, 8.115e-5
0.583, 8.078e-5
0.584, 8.041e-5
0.585, 8.006e-5
0.586, 7.970e-5
0.587, 7.935e-5
0.588, 7.901e-5
0.589, 7.869e-5
0.590, 7.832e-5
0.591, 7.800e-5
0.592, 7.765e-5
0.593, 7.734e-5
0.594, 7.702e-5
0.595, 7.668e-5
0.596, 7.638e-5
0.597, 7.607e-5
0.598, 7.576e-5
0.599, 7.547e-5
0.600, 7.516e-5
0.601, 7.486e-5
0.602, 7.457e-5
0.603, 7.428e-5
0.604, 7.401e-5
0.605, 7.374e-5
0.606, 7.346e-5
0.607, 7.319e-5
0.608, 7.291e-5
0.609, 7.266e-5
0.610, 7.239e-5
0.611, 7.213e-5
0.612, 7.189e-5
0.613, 7.163e-5
0.614, 7.135e-5
0.615, 7.112e-5
0.616, 7.088e-5
0.617, 7.065e-5
0.618, 7.040e-5
0.619, 7.017e-5
0.620, 6.993e-5
0.621, 6.971e-5
0.622, 6.948e-5
0.623, 6.925e-5
0.624, 6.903e-5
0.625, 6.881e-5
0.626, 6.859e-5
0.627, 6.837e-5
0.628, 6.817e-5
0.629, 6.797e-5
0.630, 6.775e-5
0.631, 6.755e-5
0.632, 6.735e-5
0.633, 6.715e-5
0.634, 6.696e-5
0.635, 6.675e-5
0.636, 6.657e-5
0.637, 6.638e-5
0.638, 6.618e-5
0.639, 6.600e-5
0.640, 6.583e-5
0.641, 6.563e-5
0.642, 6.545e-5
0.643, 6.527e-5
0.644, 6.510e-5
0.645, 6.492e-5
0.646, 6.475e-5
0.647, 6.458e-5
0.648, 6.441e-5
0.649, 6.425e-5
0.650, 6.407e-5
0.651, 6.391e-5
0.652, 6.375e-5
0.653, 6.358e-5
0.654, 6.342e-5
0.655, 6.327e-5
0.656, 6.311e-5
0.657, 6.296e-5
0.658, 6.281e-5
0.659, 6.265e-5
0.660, 6.251e-5
0.661, 6.236e-5
0.662, 6.220e-5
0.663, 6.206e-5
0.664, 6.191e-5
0.665, 6.177e-5
0.666, 6.162e-5
0.667, 6.148e-5
0.668, 6.135e-5
0.669, 6.121e-5
0.670, 6.107e-5
0.671, 6.093e-5
0.672, 6.080e-5
0.673, 6.067e-5
0.674, 6.054e-5
0.675, 6.040e-5
0.676, 6.028e-5
0.677, 6.015e-5
0.678, 6.001e-5
0.679, 5.989e-5
0.680, 5.977e-5
0.681, 5.965e-5
0.682, 5.952e-5
0.683, 5.940e-5
0.684, 5.928e-5
0.685, 5.916e-5
0.686, 5.904e-5
0.687, 5.893e-5
0.688, 5.880e-5
0.689, 5.870e-5
0.690, 5.858e-5
0.691, 5.847e-5
0.692, 5.835e-5
0.693, 5.824e-5
0.694, 5.812e-5
0.695, 5.802e-5
0.696, 5.790e-5
0.697, 5.780e-5
0.698, 5.769e-5
0.699, 5.758e-5
0.700, 5.748e-5
0.701, 5.737e-5
0.702, 5.727e-5
0.703, 5.716e-5
0.704, 5.705e-5
0.705, 5.696e-5
0.706, 5.686e-5
0.707, 5.675e-5
0.708, 5.666e-5
0.709, 5.656e-5
0.710, 5.645e-5
0.711, 5.636e-5
0.712, 5.627e-5
0.713, 5.617e-5
0.714, 5.608e-5
0.715, 5.598e-5
0.716, 5.589e-5
0.717, 5.581e-5
0.718, 5.570e-5
0.719, 5.561e-5
0.720, 5.552e-5
0.721, 5.543e-5
0.722, 5.534e-5
0.723, 5.524e-5
0.724, 5.516e-5
0.725, 5.508e-5
0.726, 5.497e-5
0.727, 5.490e-5
0.728, 5.481e-5
0.729, 5.471e-5
0.730, 5.464e-5
0.731, 5.455e-5
0.732, 5.447e-5
0.733, 5.438e-5
0.734, 5.430e-5
0.735, 5.421e-5
0.736, 5.413e-5
0.737, 5.405e-5
0.738, 5.398e-5
0.739, 5.389e-5
0.740, 5.382e-5
0.741, 5.374e-5
0.742, 5.367e-5
0.743, 5.358e-5
0.744, 5.351e-5
0.745, 5.343e-5
0.746, 5.335e-5
0.747, 5.327e-5
0.748, 5.321e-5
0.749, 5.313e-5
0.750, 5.305e-5
0.751, 5.298e-5
0.752, 5.291e-5
0.753, 5.284e-5
0.754, 5.277e-5
0.755, 5.268e-5
0.756, 5.262e-5
0.757, 5.256e-5
0.758, 5.248e-5
0.759, 5.242e-5
0.760, 5.235e-5
0.761, 5.228e-5
0.762, 5.222e-5
0.763, 5.214e-5
0.764, 5.208e-5
0.765, 5.201e-5
0.766, 5.194e-5
0.767, 5.189e-5
0.768, 5.181e-5
0.769, 5.176e-5
0.770, 5.170e-5
0.771, 5.162e-5
0.772, 5.156e-5
0.773, 5.151e-5
0.774, 5.144e-5
0.775, 5.137e-5
0.776, 5.131e-5
0.777, 5.126e-5
0.778, 5.120e-5
0.779, 5.113e-5
0.780, 5.107e-5
0.781, 5.100e-5
0.782, 5.095e-5
0.783, 5.090e-5
0.784, 5.083e-5
0.785, 5.078e-5
0.786, 5.072e-5
0.787, 5.067e-5
0.788, 5.061e-5
0.789, 5.055e-5
0.790, 5.049e-5
0.791, 5.044e-5
0.792, 5.038e-5
0.793, 5.034e-5
0.794, 5.028e-5
0.795, 5.022e-5
0.796, 5.017e-5
0.797, 5.011e-5
0.798, 5.005e-5
0.799, 5.000e-5
0.800, 4.995e-5
0.801, 4.990e-5
0.802, 4.985e-5
0.803, 4.979e-5
0.804, 4.975e-5
0.805, 4.970e-5
0.806, 4.963e-5
0.807, 4.960e-5
0.808, 4.954e-5
0.809, 4.950e-5
0.810, 4.945e-5
0.811, 4.939e-5
0.812, 4.935e-5
0.813, 4.930e-5
0.814, 4.925e-5
0.815, 4.920e-5
0.816, 4.915e-5
0.817, 4.911e-5
0.818, 4.906e-5
0.819, 4.897e-5
0.820, 4.896e-5
0.821, 4.891e-5
0.822, 4.886e-5
0.823, 4.882e-5
0.824, 4.878e-5
0.825, 4.874e-5
0.826, 4.869e-5
0.827, 4.864e-5
0.828, 4.860e-5
0.829, 4.856e-5
0.830, 4.852e-5
0.831, 4.847e-5
0.832, 4.841e-5
0.833, 4.838e-5
0.834, 4.834e-5
0.835, 4.830e-5
0.836, 4.826e-5
0.837, 4.822e-5
0.838, 4.817e-5
0.839, 4.813e-5
0.840, 4.809e-5
0.841, 4.805e-5
0.842, 4.801e-5
0.843, 4.796e-5
0.844, 4.793e-5
0.845, 4.791e-5
0.846, 4.785e-5
0.847, 4.781e-5
0.848, 4.777e-5
0.849, 4.773e-5
0.850, 4.770e-5
0.851, 4.765e-5
0.852, 4.761e-5
0.853, 4.757e-5
0.854, 4.754e-5
0.855, 4.750e-5
0.856, 4.746e-5
0.857, 4.741e-5
0.858, 4.738e-5
0.859, 4.734e-5
0.860, 4.731e-5
0.861, 4.728e-5
0.862, 4.723e-5
0.863, 4.720e-5
0.864, 4.716e-5
0.865, 4.713e-5
0.866, 4.709e-5
0.867, 4.705e-5
0.868, 4.702e-5
0.869, 4.699e-5
0.870, 4.694e-5
0.871, 4.691e-5
0.872, 4.688e-5
0.873, 4.685e-5
0.874, 4.682e-5
0.875, 4.677e-5
0.876, 4.674e-5
0.877, 4.671e-5
0.878, 4.667e-5
0.879, 4.664e-5
0.880, 4.660e-5
0.881, 4.658e-5
0.882, 4.654e-5
0.883, 4.649e-5
0.884, 4.647e-5
0.885, 4.644e-5
0.886, 4.641e-5
0.887, 4.638e-5
0.888, 4.635e-5
0.889, 4.632e-5
0.890, 4.629e-5
0.891, 4.625e-5
0.892, 4.622e-5
0.893, 4.619e-5
0.894, 4.616e-5
0.895, 4.613e-5
0.896, 4.611e-5
0.897, 4.607e-5
0.898, 4.605e-5
0.899, 4.601e-5
0.900, 4.598e-5
0.901, 4.596e-5
0.902, 4.592e-5
0.903, 4.590e-5
0.904, 4.587e-5
0.905, 4.584e-5
0.906, 4.581e-5
0.907, 4.578e-5
0.908, 4.575e-5
0.909, 4.571e-5
0.910, 4.570e-5
0.911, 4.567e-5
0.912, 4.564e-5
0.913, 4.562e-5
0.914, 4.559e-5
0.915, 4.555e-5
0.916, 4.554e-5
0.917, 4.551e-5
0.918, 4.548e-5
0.919, 4.545e-5
0.920, 4.543e-5
0.921, 4.541e-5
0.922, 4.538e-5
0.923, 4.535e-5
0.924, 4.533e-5
0.925, 4.530e-5
0.926, 4.527e-5
0.927, 4.525e-5
0.928, 4.522e-5
0.929, 4.520e-5
0.930, 4.517e-5
0.931, 4.515e-5
0.932, 4.512e-5
0.933, 4.511e-5
0.934, 4.506e-5
0.935, 4.505e-5
0.936, 4.503e-5
0.937, 4.501e-5
0.938, 4.498e-5
0.939, 4.496e-5
0.940, 4.494e-5
0.941, 4.491e-5
0.942, 4.489e-5
0.943, 4.486e-5
0.944, 4.485e-5
0.945, 4.483e-5
0.946, 4.480e-5
0.947, 4.480e-5
0.948, 4.476e-5
0.949, 4.475e-5
0.950, 4.472e-5
0.951, 4.470e-5
0.952, 4.468e-5
0.953, 4.466e-5
0.954, 4.464e-5
0.955, 4.461e-5
0.956, 4.460e-5
0.957, 4.458e-5
0.958, 4.456e-5
0.959, 4.453e-5
0.960, 4.449e-5
0.961, 4.449e-5
0.962, 4.448e-5
0.963, 4.445e-5
0.964, 4.444e-5
0.965, 4.442e-5
0.966, 4.440e-5
0.967, 4.438e-5
0.968, 4.436e-5
0.969, 4.434e-5
0.970, 4.433e-5
0.971, 4.430e-5
0.972, 4.429e-5
0.973, 4.426e-5
0.974, 4.425e-5
0.975, 4.423e-5
0.976, 4.422e-5
0.977, 4.420e-5
0.978, 4.418e-5
0.979, 4.416e-5
0.980, 4.415e-5
0.981, 4.414e-5
0.982, 4.411e-5
0.983, 4.410e-5
0.984, 4.409e-5
0.985, 4.406e-5
0.986, 4.405e-5
0.987, 4.403e-5
0.988, 4.402e-5
0.989, 4.401e-5
0.990, 4.399e-5
0.991, 4.397e-5
0.992, 4.396e-5
0.993, 4.395e-5
0.994, 4.394e-5
0.995, 4.392e-5
0.996, 4.391e-5
0.997, 4.390e-5
0.998, 4.390e-5
0.999, 4.387e-5
1.000, 4.312e-5
0.999, 4.269e-5
0.998, 4.254e-5
0.997, 4.241e-5
0.996, 4.229e-5
0.995, 4.219e-5
0.994, 4.211e-5
0.993, 4.201e-5
0.992, 4.194e-5
0.991, 4.186e-5
0.990, 4.179e-5
0.989, 4.172e-5
0.988, 4.165e-5
0.987, 4.158e-5
0.986, 4.155e-5
0.985, 4.147e-5
0.984, 4.141e-5
0.983, 4.136e-5
0.982, 4.130e-5
0.981, 4.125e-5
0.980, 4.120e-5
0.979, 4.114e-5
0.978, 4.111e-5
0.977, 4.105e-5
0.976, 4.100e-5
0.975, 4.096e-5
0.974, 4.091e-5
0.973, 4.087e-5
0.972, 4.082e-5
0.971, 4.078e-5
0.970, 4.074e-5
0.969, 4.071e-5
0.968, 4.066e-5
0.967, 4.061e-5
0.966, 4.058e-5
0.965, 4.054e-5
0.964, 4.050e-5
0.963, 4.047e-5
0.962, 4.043e-5
0.961, 4.039e-5
0.960, 4.036e-5
0.959, 4.032e-5
0.958, 4.028e-5
0.957, 4.025e-5
0.956, 4.020e-5
0.955, 4.017e-5
0.954, 4.013e-5
0.953, 4.010e-5
0.952, 4.007e-5
0.951, 4.004e-5
0.950, 4.001e-5
0.949, 3.998e-5
0.948, 3.993e-5
0.947, 3.991e-5
0.946, 3.988e-5
0.945, 3.985e-5
0.944, 3.982e-5
0.943, 3.979e-5
0.942, 3.976e-5
0.941, 3.974e-5
0.940, 3.970e-5
0.939, 3.967e-5
0.938, 3.964e-5
0.937, 3.961e-5
0.936, 3.958e-5
0.935, 3.957e-5
0.934, 3.954e-5
0.933, 3.951e-5
0.932, 3.948e-5
0.931, 3.945e-5
0.930, 3.943e-5
0.929, 3.939e-5
0.928, 3.936e-5
0.927, 3.934e-5
0.926, 3.931e-5
0.925, 3.929e-5
0.924, 3.925e-5
0.923, 3.924e-5
0.922, 3.920e-5
0.921, 3.918e-5
0.920, 3.915e-5
0.919, 3.913e-5
0.918, 3.911e-5
0.917, 3.909e-5
0.916, 3.906e-5
0.915, 3.904e-5
0.914, 3.902e-5
0.913, 3.899e-5
0.912, 3.896e-5
0.911, 3.894e-5
0.910, 3.891e-5
0.909, 3.891e-5
0.908, 3.886e-5
0.907, 3.884e-5
0.906, 3.883e-5
0.905, 3.880e-5
0.904, 3.877e-5
0.903, 3.876e-5
0.902, 3.874e-5
0.901, 3.871e-5
0.900, 3.868e-5
0.899, 3.866e-5
0.898, 3.864e-5
0.897, 3.862e-5
0.896, 3.858e-5
0.895, 3.857e-5
0.894, 3.856e-5
0.893, 3.854e-5
0.892, 3.851e-5
0.891, 3.849e-5
0.890, 3.848e-5
0.889, 3.845e-5
0.888, 3.842e-5
0.887, 3.840e-5
0.886, 3.839e-5
0.885, 3.837e-5
0.884, 3.836e-5
0.883, 3.833e-5
0.882, 3.831e-5
0.881, 3.829e-5
0.880, 3.827e-5
0.879, 3.825e-5
0.878, 3.823e-5
0.877, 3.821e-5
0.876, 3.818e-5
0.875, 3.817e-5
0.874, 3.815e-5
0.873, 3.813e-5
0.872, 3.811e-5
0.871, 3.810e-5
0.870, 3.808e-5
0.869, 3.806e-5
0.868, 3.804e-5
0.867, 3.802e-5
0.866, 3.801e-5
0.865, 3.798e-5
0.864, 3.796e-5
0.863, 3.794e-5
0.862, 3.793e-5
0.861, 3.792e-5
0.860, 3.789e-5
0.859, 3.788e-5
0.858, 3.787e-5
0.857, 3.784e-5
0.856, 3.782e-5
0.855, 3.781e-5
0.854, 3.779e-5
0.853, 3.778e-5
0.852, 3.775e-5
0.851, 3.774e-5
0.850, 3.772e-5
0.849, 3.770e-5
0.848, 3.768e-5
0.847, 3.766e-5
0.846, 3.766e-5
0.845, 3.762e-5
0.844, 3.762e-5
0.843, 3.760e-5
0.842, 3.759e-5
0.841, 3.757e-5
0.840, 3.755e-5
0.839, 3.753e-5
0.838, 3.752e-5
0.837, 3.751e-5
0.836, 3.748e-5
0.835, 3.748e-5
0.834, 3.746e-5
0.833, 3.744e-5
0.832, 3.743e-5
0.831, 3.742e-5
0.830, 3.740e-5
0.829, 3.739e-5
0.828, 3.736e-5
0.827, 3.735e-5
0.826, 3.734e-5
0.825, 3.732e-5
0.824, 3.730e-5
0.823, 3.729e-5
0.822, 3.727e-5
0.821, 3.727e-5
0.820, 3.727e-5
0.819, 3.725e-5
0.818, 3.723e-5
0.817, 3.720e-5
0.816, 3.719e-5
0.815, 3.717e-5
0.814, 3.716e-5
0.813, 3.715e-5
0.812, 3.713e-5
0.811, 3.712e-5
0.810, 3.711e-5
0.809, 3.709e-5
0.808, 3.707e-5
0.807, 3.707e-5
0.806, 3.705e-5
0.805, 3.704e-5
0.804, 3.702e-5
0.803, 3.701e-5
0.802, 3.700e-5
0.801, 3.698e-5
0.800, 3.697e-5
0.799, 3.696e-5
0.798, 3.694e-5
0.797, 3.693e-5
0.796, 3.691e-5
0.795, 3.690e-5
0.794, 3.688e-5
0.793, 3.687e-5
0.792, 3.686e-5
0.791, 3.685e-5
0.790, 3.684e-5
0.789, 3.683e-5
0.788, 3.681e-5
0.787, 3.680e-5
0.786, 3.679e-5
0.785, 3.677e-5
0.784, 3.676e-5
0.783, 3.674e-5
0.782, 3.673e-5
0.781, 3.673e-5
0.780, 3.671e-5
0.779, 3.669e-5
0.778, 3.668e-5
0.777, 3.667e-5
0.776, 3.665e-5
0.775, 3.665e-5
0.774, 3.664e-5
0.773, 3.663e-5
0.772, 3.660e-5
0.771, 3.660e-5
0.770, 3.659e-5
0.769, 3.657e-5
0.768, 3.656e-5
0.767, 3.655e-5
0.766, 3.653e-5
0.765, 3.653e-5
0.764, 3.651e-5
0.763, 3.650e-5
0.762, 3.649e-5
0.761, 3.647e-5
0.760, 3.645e-5
0.759, 3.645e-5
0.758, 3.644e-5
0.757, 3.643e-5
0.756, 3.642e-5
0.755, 3.641e-5
0.754, 3.640e-5
0.753, 3.638e-5
0.752, 3.636e-5
0.751, 3.636e-5
0.750, 3.634e-5
0.749, 3.634e-5
0.748, 3.632e-5
0.747, 3.631e-5
0.746, 3.630e-5
0.745, 3.628e-5
0.744, 3.628e-5
0.743, 3.625e-5
0.742, 3.625e-5
0.741, 3.624e-5
0.740, 3.622e-5
0.739, 3.621e-5
0.738, 3.621e-5
0.737, 3.619e-5
0.736, 3.619e-5
0.735, 3.617e-5
0.734, 3.617e-5
0.733, 3.615e-5
0.732, 3.614e-5
0.731, 3.613e-5
0.730, 3.613e-5
0.729, 3.611e-5
0.728, 3.610e-5
0.727, 3.609e-5
0.726, 3.608e-5
0.725, 3.606e-5
0.724, 3.605e-5
0.723, 3.604e-5
0.722, 3.603e-5
0.721, 3.602e-5
0.720, 3.600e-5
0.719, 3.599e-5
0.718, 3.598e-5
0.717, 3.596e-5
0.716, 3.595e-5
0.715, 3.595e-5
0.714, 3.594e-5
0.713, 3.593e-5
0.712, 3.591e-5
0.711, 3.591e-5
0.710, 3.590e-5
0.709, 3.589e-5
0.708, 3.587e-5
0.707, 3.586e-5
0.706, 3.586e-5
0.705, 3.584e-5
0.704, 3.584e-5
0.703, 3.582e-5
0.702, 3.581e-5
0.701, 3.580e-5
0.700, 3.578e-5
0.699, 3.577e-5
0.698, 3.576e-5
0.697, 3.575e-5
0.696, 3.573e-5
0.695, 3.572e-5
0.694, 3.572e-5
0.693, 3.571e-5
0.692, 3.568e-5
0.691, 3.568e-5
0.690, 3.567e-5
0.689, 3.566e-5
0.688, 3.565e-5
0.687, 3.564e-5
0.686, 3.562e-5
0.685, 3.562e-5
0.684, 3.560e-5
0.683, 3.559e-5
0.682, 3.558e-5
0.681, 3.556e-5
0.680, 3.555e-5
0.679, 3.555e-5
0.678, 3.553e-5
0.677, 3.551e-5
0.676, 3.549e-5
0.675, 3.548e-5
0.674, 3.547e-5
0.673, 3.546e-5
0.672, 3.545e-5
0.671, 3.543e-5
0.670, 3.542e-5
0.669, 3.541e-5
0.668, 3.540e-5
0.667, 3.538e-5
0.666, 3.538e-5
0.665, 3.535e-5
0.664, 3.534e-5
0.663, 3.533e-5
0.662, 3.531e-5
0.661, 3.530e-5
0.660, 3.528e-5
0.659, 3.527e-5
0.658, 3.525e-5
0.657, 3.523e-5
0.656, 3.522e-5
0.655, 3.521e-5
0.654, 3.519e-5
0.653, 3.519e-5
0.652, 3.516e-5
0.651, 3.514e-5
0.650, 3.513e-5
0.649, 3.511e-5
0.648, 3.509e-5
0.647, 3.508e-5
0.646, 3.506e-5
0.645, 3.503e-5
0.644, 3.501e-5
0.643, 3.499e-5
0.642, 3.498e-5
0.641, 3.495e-5
0.640, 3.492e-5
0.639, 3.491e-5
0.638, 3.489e-5
0.637, 3.487e-5
0.636, 3.484e-5
0.635, 3.482e-5
0.634, 3.480e-5
0.633, 3.476e-5
0.632, 3.474e-5
0.631, 3.472e-5
0.630, 3.470e-5
0.629, 3.467e-5
0.628, 3.464e-5
0.627, 3.462e-5
0.626, 3.459e-5
0.625, 3.456e-5
0.624, 3.453e-5
0.623, 3.448e-5
0.622, 3.446e-5
0.621, 3.443e-5
0.620, 3.439e-5
0.619, 3.435e-5
0.618, 3.432e-5
0.617, 3.428e-5
0.616, 3.425e-5
0.615, 3.424e-5
0.614, 3.418e-5
0.613, 3.414e-5
0.612, 3.409e-5
0.611, 3.404e-5
0.610, 3.400e-5
0.609, 3.396e-5
0.608, 3.390e-5
0.607, 3.386e-5
0.606, 3.381e-5
0.605, 3.375e-5
0.604, 3.369e-5
0.603, 3.364e-5
0.602, 3.360e-5
0.601, 3.353e-5
0.600, 3.346e-5
0.599, 3.340e-5
0.598, 3.332e-5
0.597, 3.326e-5
0.596, 3.319e-5
0.595, 3.311e-5
0.594, 3.304e-5
0.593, 3.297e-5
0.592, 3.287e-5
0.591, 3.280e-5
0.590, 3.271e-5
0.589, 3.259e-5
0.588, 3.251e-5
0.587, 3.242e-5
0.586, 3.233e-5
0.585, 3.222e-5
0.584, 3.211e-5
0.583, 3.200e-5
0.582, 3.188e-5
0.581, 3.177e-5
0.580, 3.164e-5
0.579, 3.151e-5
0.578, 3.139e-5
0.577, 3.124e-5
0.576, 3.113e-5
0.575, 3.095e-5
0.574, 3.081e-5
0.573, 3.065e-5
0.572, 3.047e-5
0.571, 3.031e-5
0.570, 3.014e-5
0.569, 2.996e-5
0.568, 2.975e-5
0.567, 2.957e-5
0.566, 2.937e-5
0.565, 2.916e-5
0.564, 2.894e-5
0.563, 2.872e-5
0.562, 2.848e-5
0.561, 2.824e-5
0.560, 2.799e-5
0.559, 2.771e-5
0.558, 2.746e-5
0.557, 2.719e-5
0.556, 2.690e-5
0.555, 2.659e-5
0.554, 2.631e-5
0.553, 2.599e-5
0.552, 2.566e-5
0.551, 2.532e-5
0.550, 2.498e-5
0.549, 2.463e-5
0.548, 2.420e-5
0.547, 2.383e-5
0.546, 2.342e-5
0.545, 2.297e-5
0.544, 2.256e-5
0.543, 2.210e-5
0.542, 2.163e-5
0.541, 2.115e-5
0.540, 2.062e-5
0.539, 2.014e-5
0.538, 1.950e-5
0.537, 1.899e-5
0.536, 1.845e-5
0.535, 1.787e-5
0.534, 1.726e-5
0.533, 1.666e-5
0.532, 1.600e-5
0.531, 1.528e-5
0.530, 1.466e-5
0.529, 1.395e-5
0.528, 1.320e-5
0.527, 1.239e-5
0.526, 1.167e-5
0.525, 1.106e-5
0.524, 1.014e-5
0.523, 9.254e-6
0.522, 8.419e-6
0.521, 7.435e-6
0.520, 6.593e-6
0.519, 5.657e-6
0.518, 4.624e-6
0.517, 3.617e-6
0.516, 2.698e-6
0.515, 1.560e-6
0.514, 5.165e-7
0.513, -6.875e-7
0.512, -1.882e-6
0.511, -2.920e-6
0.510, -4.175e-6
0.509, -5.305e-6
0.508, -6.475e-6
0.507, -7.799e-6
0.506, -9.065e-6
0.505, -1.037e-5
0.504, -1.166e-5
0.503, -1.317e-5
0.502, -1.443e-5
0.501, -1.580e-5
0.500, -1.724e-5
0.499, -1.843e-5
0.498, -2.013e-5
0.497, -2.158e-5
0.496, -2.309e-5
0.495, -2.468e-5
0.494, -2.609e-5
0.493, -2.763e-5
0.492, -2.928e-5
0.491, -3.075e-5
0.490, -3.250e-5
0.489, -3.411e-5
0.488, -3.569e-5
0.487, -3.751e-5
0.486, -3.927e-5
0.485, -4.060e-5
0.484, -4.229e-5
0.483, -4.384e-5
0.482, -4.533e-5
0.481, -4.704e-5
0.480, -4.842e-5
0.479, -5.011e-5
0.478, -5.172e-5
0.477, -5.323e-5
0.476, -5.463e-5
0.475, -5.626e-5
0.474, -5.742e-5
0.473, -5.888e-5
0.472, -6.037e-5
0.471, -6.200e-5
0.470, -6.329e-5
0.469, -6.438e-5
0.468, -6.592e-5
0.467, -6.694e-5
0.466, -6.833e-5
0.465, -6.955e-5
0.464, -7.054e-5
0.463, -7.191e-5
0.462, -7.296e-5
0.461, -7.363e-5
0.460, -7.478e-5
0.459, -7.573e-5
0.458, -7.663e-5
0.457, -7.750e-5
0.456, -7.827e-5
0.455, -7.897e-5
0.454, -7.967e-5
0.453, -8.036e-5
0.452, -8.104e-5
0.451, -8.156e-5
0.450, -8.210e-5
0.449, -8.254e-5
0.448, -8.254e-5
0.447, -8.319e-5
0.446, -8.355e-5
0.445, -8.382e-5
0.444, -8.417e-5
0.443, -8.439e-5
0.442, -8.448e-5
0.441, -8.473e-5
0.440, -8.465e-5
0.439, -8.481e-5
0.438, -8.482e-5
0.437, -8.475e-5
0.436, -8.477e-5
0.435, -8.503e-5
0.434, -8.460e-5
0.433, -8.446e-5
0.432, -8.417e-5
0.431, -8.404e-5
0.430, -8.387e-5
0.429, -8.344e-5
0.428, -8.320e-5
0.427, -8.281e-5
0.426, -8.245e-5
0.425, -8.211e-5
0.424, -8.172e-5
0.423, -8.126e-5
0.422, -8.081e-5
0.421, -8.037e-5
0.420, -8.002e-5
0.419, -7.953e-5
0.418, -7.900e-5
0.417, -7.850e-5
0.416, -7.798e-5
0.415, -7.753e-5
0.414, -7.694e-5
0.413, -7.641e-5
0.412, -7.591e-5
0.411, -7.536e-5
0.410, -7.427e-5
0.409, -7.387e-5
0.408, -7.343e-5
0.407, -7.291e-5
0.406, -7.237e-5
0.405, -7.178e-5
0.404, -7.124e-5
0.403, -7.061e-5
0.402, -7.007e-5
0.401, -6.950e-5
0.400, -6.888e-5
0.399, -6.833e-5
0.398, -6.777e-5
0.397, -6.707e-5
0.396, -6.655e-5
0.395, -6.605e-5
0.394, -6.541e-5
0.393, -6.487e-5
0.392, -6.428e-5
0.391, -6.370e-5
0.390, -6.318e-5
0.389, -6.258e-5
0.388, -6.204e-5
0.387, -6.148e-5
0.386, -6.088e-5
0.385, -6.040e-5
0.384, -5.991e-5
0.383, -5.934e-5
0.382, -5.881e-5
0.381, -5.825e-5
0.380, -5.774e-5
0.379, -5.721e-5
0.378, -5.670e-5
0.377, -5.619e-5
0.376, -5.570e-5
0.375, -5.518e-5
0.374, -5.470e-5
0.373, -5.419e-5
0.372, -5.371e-5
0.371, -5.320e-5
0.370, -5.276e-5
0.369, -5.229e-5
0.368, -5.185e-5
0.367, -5.139e-5
0.366, -5.094e-5
0.365, -5.050e-5
0.364, -5.007e-5
0.363, -4.964e-5
0.362, -4.919e-5
0.361, -4.878e-5
0.360, -4.837e-5
0.359, -4.795e-5
0.358, -4.754e-5
0.357, -4.715e-5
0.356, -4.675e-5
0.355, -4.635e-5
0.354, -4.597e-5
0.353, -4.559e-5
0.352, -4.521e-5
0.351, -4.484e-5
0.350, -4.447e-5
0.349, -4.411e-5
0.348, -4.377e-5
0.347, -4.341e-5
0.346, -4.304e-5
0.345, -4.270e-5
0.344, -4.237e-5
0.343, -4.203e-5
0.342, -4.171e-5
0.341, -4.138e-5
0.340, -4.106e-5
0.339, -4.075e-5
0.338, -4.044e-5
0.337, -4.012e-5
0.336, -3.982e-5
0.335, -3.952e-5
0.334, -3.922e-5
0.333, -3.894e-5
0.332, -3.864e-5
0.331, -3.836e-5
0.330, -3.807e-5
0.329, -3.779e-5
0.328, -3.752e-5
0.327, -3.724e-5
0.326, -3.698e-5
0.325, -3.671e-5
0.324, -3.645e-5
0.323, -3.619e-5
0.322, -3.594e-5
0.321, -3.569e-5
0.320, -3.543e-5
0.319, -3.520e-5
0.318, -3.495e-5
0.317, -3.472e-5
0.316, -3.449e-5
0.315, -3.425e-5
0.314, -3.401e-5
0.313, -3.379e-5
0.312, -3.357e-5
0.311, -3.335e-5
0.310, -3.313e-5
0.309, -3.291e-5
0.308, -3.271e-5
0.307, -3.250e-5
0.306, -3.228e-5
0.305, -3.207e-5
0.304, -3.187e-5
0.303, -3.167e-5
0.302, -3.147e-5
0.301, -3.127e-5
0.300, -3.108e-5
0.299, -3.088e-5
0.298, -3.069e-5
0.297, -3.051e-5
0.296, -3.031e-5
0.295, -3.013e-5
0.294, -2.995e-5
0.293, -2.976e-5
0.292, -2.959e-5
0.291, -2.942e-5
0.290, -2.924e-5
0.289, -2.908e-5
0.288, -2.890e-5
0.287, -2.874e-5
0.286, -2.857e-5
0.285, -2.840e-5
0.284, -2.825e-5
0.283, -2.809e-5
0.282, -2.793e-5
0.281, -2.778e-5
0.280, -2.762e-5
0.279, -2.746e-5
0.278, -2.730e-5
0.277, -2.715e-5
0.276, -2.701e-5
0.275, -2.686e-5
0.274, -2.671e-5
0.273, -2.657e-5
0.272, -2.642e-5
0.271, -2.628e-5
0.270, -2.614e-5
0.269, -2.599e-5
0.268, -2.586e-5
0.267, -2.572e-5
0.266, -2.559e-5
0.265, -2.546e-5
0.264, -2.533e-5
0.263, -2.520e-5
0.262, -2.507e-5
0.261, -2.494e-5
0.260, -2.482e-5
0.259, -2.469e-5
0.258, -2.456e-5
0.257, -2.444e-5
0.256, -2.432e-5
0.255, -2.419e-5
0.254, -2.407e-5
0.253, -2.395e-5
0.252, -2.384e-5
0.251, -2.372e-5
0.250, -2.360e-5
0.249, -2.349e-5
0.248, -2.337e-5
0.247, -2.326e-5
0.246, -2.315e-5
0.245, -2.304e-5
0.244, -2.292e-5
0.243, -2.281e-5
0.242, -2.271e-5
0.241, -2.260e-5
0.240, -2.250e-5
0.239, -2.239e-5
0.238, -2.229e-5
0.237, -2.218e-5
0.236, -2.208e-5
0.235, -2.198e-5
0.234, -2.188e-5
0.233, -2.178e-5
0.232, -2.168e-5
0.231, -2.159e-5
0.230, -2.149e-5
0.229, -2.139e-5
0.228, -2.130e-5
0.227, -2.120e-5
0.226, -2.111e-5
0.225, -2.101e-5
0.224, -2.092e-5
0.223, -2.083e-5
0.222, -2.074e-5
0.221, -2.065e-5
0.220, -2.056e-5
0.219, -2.046e-5
0.218, -2.037e-5
0.217, -2.029e-5
0.216, -2.020e-5
0.215, -2.011e-5
0.214, -2.003e-5
0.213, -1.994e-5
0.212, -1.986e-5
0.211, -1.978e-5
0.210, -1.969e-5
0.209, -1.962e-5
0.208, -1.953e-5
0.207, -1.945e-5
0.206, -1.937e-5
0.205, -1.926e-5
0.204, -1.920e-5
0.203, -1.913e-5
0.202, -1.905e-5
0.201, -1.897e-5
0.200, -1.890e-5
0.199, -1.882e-5
0.198, -1.874e-5
0.197, -1.866e-5
0.196, -1.859e-5
0.195, -1.852e-5
0.194, -1.844e-5
0.193, -1.837e-5
0.192, -1.828e-5
0.191, -1.822e-5
0.190, -1.814e-5
0.189, -1.807e-5
0.188, -1.800e-5
0.187, -1.793e-5
0.186, -1.786e-5
0.185, -1.779e-5
0.184, -1.772e-5
0.183, -1.765e-5
0.182, -1.759e-5
0.181, -1.752e-5
0.180, -1.746e-5
0.179, -1.739e-5
0.178, -1.732e-5
0.177, -1.725e-5
0.176, -1.719e-5
0.175, -1.712e-5
0.174, -1.705e-5
0.173, -1.698e-5
0.172, -1.693e-5
0.171, -1.686e-5
0.170, -1.680e-5
0.169, -1.673e-5
0.168, -1.667e-5
0.167, -1.660e-5
0.166, -1.654e-5
0.165, -1.648e-5
0.164, -1.642e-5
0.163, -1.636e-5
0.162, -1.630e-5
0.161, -1.624e-5
0.160, -1.618e-5
0.159, -1.612e-5
0.158, -1.606e-5
0.157, -1.600e-5
0.156, -1.594e-5
0.155, -1.589e-5
0.154, -1.582e-5
0.153, -1.577e-5
0.152, -1.571e-5
0.151, -1.565e-5
0.150, -1.559e-5
0.149, -1.554e-5
0.148, -1.548e-5
0.147, -1.543e-5
0.146, -1.537e-5
0.145, -1.532e-5
0.144, -1.526e-5
0.143, -1.521e-5
0.142, -1.515e-5
0.141, -1.509e-5
0.140, -1.505e-5
0.139, -1.499e-5
0.138, -1.494e-5
0.137, -1.489e-5
0.136, -1.484e-5
0.135, -1.479e-5
0.134, -1.473e-5
0.133, -1.468e-5
0.132, -1.463e-5
0.131, -1.459e-5
0.130, -1.453e-5
0.129, -1.448e-5
0.128, -1.445e-5
0.127, -1.439e-5
0.126, -1.434e-5
0.125, -1.429e-5
0.124, -1.424e-5
0.123, -1.419e-5
0.122, -1.414e-5
0.121, -1.410e-5
0.120, -1.405e-5
0.119, -1.400e-5
0.118, -1.396e-5
0.117, -1.391e-5
0.116, -1.386e-5
0.115, -1.381e-5
0.114, -1.376e-5
0.113, -1.373e-5
0.112, -1.368e-5
0.111, -1.364e-5
0.110, -1.359e-5
0.109, -1.354e-5
0.108, -1.351e-5
0.107, -1.346e-5
0.106, -1.341e-5
0.105, -1.337e-5
0.104, -1.333e-5
0.103, -1.329e-5
0.102, -1.325e-5
0.101, -1.320e-5
0.100, -1.316e-5
0.099, -1.312e-5
0.098, -1.308e-5
0.097, -1.304e-5
0.096, -1.300e-5
0.095, -1.295e-5
0.094, -1.291e-5
0.093, -1.286e-5
0.092, -1.283e-5
0.091, -1.279e-5
0.090, -1.274e-5
0.089, -1.270e-5
0.088, -1.267e-5
0.087, -1.263e-5
0.086, -1.259e-5
0.085, -1.255e-5
0.084, -1.252e-5
0.083, -1.248e-5
0.082, -1.243e-5
0.081, -1.240e-5
0.080, -1.236e-5
0.079, -1.232e-5
0.078, -1.228e-5
0.077, -1.226e-5
0.076, -1.222e-5
0.075, -1.218e-5
0.074, -1.214e-5
0.073, -1.210e-5
0.072, -1.207e-5
0.071, -1.203e-5
0.070, -1.199e-5
0.069, -1.196e-5
0.068, -1.192e-5
0.067, -1.188e-5
0.066, -1.185e-5
0.065, -1.181e-5
0.064, -1.177e-5
0.063, -1.174e-5
0.062, -1.171e-5
0.061, -1.167e-5
0.060, -1.164e-5
0.059, -1.161e-5
0.058, -1.157e-5
0.057, -1.154e-5
0.056, -1.151e-5
0.055, -1.147e-5
0.054, -1.144e-5
0.053, -1.141e-5
0.052, -1.137e-5
0.051, -1.134e-5
0.050, -1.131e-5
0.049, -1.128e-5
0.048, -1.125e-5
0.047, -1.121e-5
0.046, -1.119e-5
0.045, -1.115e-5
0.044, -1.113e-5
0.043, -1.109e-5
0.042, -1.106e-5
0.041, -1.103e-5
0.040, -1.100e-5
0.039, -1.096e-5
0.038, -1.093e-5
0.037, -1.090e-5
0.036, -1.088e-5
0.035, -1.085e-5
0.034, -1.081e-5
0.033, -1.078e-5
0.032, -1.075e-5
0.031, -1.072e-5
0.030, -1.069e-5
0.029, -1.066e-5
0.028, -1.064e-5
0.027, -1.061e-5
0.026, -1.059e-5
0.025, -1.056e-5
0.024, -1.053e-5
0.023, -1.050e-5
0.022, -1.046e-5
0.021, -1.044e-5
0.020, -1.041e-5
0.019, -1.038e-5
0.018, -1.035e-5
0.017, -1.033e-5
0.016, -1.030e-5
0.015, -1.028e-5
0.014, -1.025e-5
0.013, -1.021e-5
0.012, -1.020e-5
0.011, -1.017e-5
0.010, -1.014e-5
0.009, -1.011e-5
0.008, -1.009e-5
0.007, -1.006e-5
0.006, -1.004e-5
0.005, -1.001e-5
0.004, -9.990e-6
0.003, -9.961e-6
0.002, -9.932e-6
0.001, -9.915e-6
