May 7, 2026   14:35:58
Cyclic Voltammetry
File: mecn_ar_0.1mtbapf6_-1.2_to_1v_100mvs_2
Data Source:  Experiment
Instrument Model:  CHI660D
Header: 
Note: 

Init E (V) = 0
High E (V) = 1
Low E (V) = -1.2
Final E (V) = 0
Init P/N = N
Scan Rate (V/s) = 0.1
Segment = 3
Sample Interval (V) = 0.001
Quiet Time (sec) = 2
Sensitivity (A/V) = 1e-5
Comp R (ohm) = 123.4

Results:

Channel 1:
Segment 1:

Segment 2:

Segment 3:

Potential/V, Current/A

0.000, -1.812e-7
-0.001, -2.555e-7
-0.002, -2.779e-7
-0.003, -2.914e-7
-0.004, -3.107e-7
-0.005, -3.236e-7
-0.006, -3.300e-7
-0.007, -3.426e-7
-0.008, -3.518e-7
-0.009, -3.577e-7
-0.010, -3.659e-7
-0.011, -3.727e-7
-0.012, -3.773e-7
-0.013, -3.824e-7
-0.014, -3.888e-7
-0.015, -3.968e-7
-0.016, -4.006e-7
-0.017, -4.060e-7
-0.018, -4.103e-7
-0.019, -4.150e-7
-0.020, -4.209e-7
-0.021, -4.258e-7
-0.022, -4.265e-7
-0.023, -4.344e-7
-0.024, -4.378e-7
-0.025, -4.468e-7
-0.026, -4.480e-7
-0.027, -4.491e-7
-0.028, -4.549e-7
-0.029, -4.579e-7
-0.030, -4.596e-7
-0.031, -4.661e-7
-0.032, -4.696e-7
-0.033, -4.714e-7
-0.034, -4.742e-7
-0.035, -4.778e-7
-0.036, -4.846e-7
-0.037, -4.860e-7
-0.038, -4.783e-7
-0.039, -4.908e-7
-0.040, -4.946e-7
-0.041, -4.968e-7
-0.042, -5.005e-7
-0.043, -5.031e-7
-0.044, -5.075e-7
-0.045, -5.099e-7
-0.046, -5.100e-7
-0.047, -5.161e-7
-0.048, -5.194e-7
-0.049, -5.208e-7
-0.050, -5.238e-7
-0.051, -5.240e-7
-0.052, -5.304e-7
-0.053, -5.336e-7
-0.054, -5.343e-7
-0.055, -5.387e-7
-0.056, -5.432e-7
-0.057, -5.440e-7
-0.058, -5.460e-7
-0.059, -5.481e-7
-0.060, -5.541e-7
-0.061, -5.568e-7
-0.062, -5.565e-7
-0.063, -5.611e-7
-0.064, -5.550e-7
-0.065, -5.662e-7
-0.066, -5.681e-7
-0.067, -5.704e-7
-0.068, -5.753e-7
-0.069, -5.790e-7
-0.070, -5.778e-7
-0.071, -5.825e-7
-0.072, -5.860e-7
-0.073, -5.868e-7
-0.074, -5.892e-7
-0.075, -5.917e-7
-0.076, -6.038e-7
-0.077, -5.996e-7
-0.078, -5.999e-7
-0.079, -6.030e-7
-0.080, -6.066e-7
-0.081, -6.085e-7
-0.082, -6.097e-7
-0.083, -6.140e-7
-0.084, -6.228e-7
-0.085, -6.166e-7
-0.086, -6.223e-7
-0.087, -6.253e-7
-0.088, -6.274e-7
-0.089, -6.222e-7
-0.090, -6.266e-7
-0.091, -6.358e-7
-0.092, -6.367e-7
-0.093, -6.436e-7
-0.094, -6.375e-7
-0.095, -6.465e-7
-0.096, -6.474e-7
-0.097, -6.462e-7
-0.098, -6.538e-7
-0.099, -6.517e-7
-0.100, -6.585e-7
-0.101, -6.608e-7
-0.102, -6.664e-7
-0.103, -6.670e-7
-0.104, -6.661e-7
-0.105, -6.707e-7
-0.106, -6.716e-7
-0.107, -6.733e-7
-0.108, -6.795e-7
-0.109, -6.789e-7
-0.110, -6.816e-7
-0.111, -6.834e-7
-0.112, -6.908e-7
-0.113, -6.874e-7
-0.114, -6.934e-7
-0.115, -6.866e-7
-0.116, -7.000e-7
-0.117, -6.992e-7
-0.118, -7.007e-7
-0.119, -7.028e-7
-0.120, -7.073e-7
-0.121, -7.086e-7
-0.122, -7.134e-7
-0.123, -7.125e-7
-0.124, -7.169e-7
-0.125, -7.192e-7
-0.126, -7.211e-7
-0.127, -7.219e-7
-0.128, -7.387e-7
-0.129, -7.281e-7
-0.130, -7.316e-7
-0.131, -7.330e-7
-0.132, -7.417e-7
-0.133, -7.426e-7
-0.134, -7.356e-7
-0.135, -7.442e-7
-0.136, -7.460e-7
-0.137, -7.481e-7
-0.138, -7.534e-7
-0.139, -7.527e-7
-0.140, -7.516e-7
-0.141, -7.564e-7
-0.142, -7.586e-7
-0.143, -7.625e-7
-0.144, -7.650e-7
-0.145, -7.674e-7
-0.146, -7.703e-7
-0.147, -7.724e-7
-0.148, -7.783e-7
-0.149, -7.780e-7
-0.150, -7.789e-7
-0.151, -7.820e-7
-0.152, -7.865e-7
-0.153, -7.851e-7
-0.154, -7.881e-7
-0.155, -7.923e-7
-0.156, -7.952e-7
-0.157, -7.952e-7
-0.158, -7.975e-7
-0.159, -8.037e-7
-0.160, -8.022e-7
-0.161, -8.082e-7
-0.162, -8.079e-7
-0.163, -8.097e-7
-0.164, -8.148e-7
-0.165, -8.173e-7
-0.166, -8.097e-7
-0.167, -8.229e-7
-0.168, -8.217e-7
-0.169, -8.256e-7
-0.170, -8.245e-7
-0.171, -8.301e-7
-0.172, -8.316e-7
-0.173, -8.360e-7
-0.174, -8.382e-7
-0.175, -8.379e-7
-0.176, -8.445e-7
-0.177, -8.414e-7
-0.178, -8.460e-7
-0.179, -8.553e-7
-0.180, -8.506e-7
-0.181, -8.546e-7
-0.182, -8.583e-7
-0.183, -8.592e-7
-0.184, -8.606e-7
-0.185, -8.622e-7
-0.186, -8.662e-7
-0.187, -8.629e-7
-0.188, -8.730e-7
-0.189, -8.688e-7
-0.190, -8.728e-7
-0.191, -8.769e-7
-0.192, -8.705e-7
-0.193, -8.813e-7
-0.194, -8.797e-7
-0.195, -8.818e-7
-0.196, -8.916e-7
-0.197, -8.886e-7
-0.198, -8.927e-7
-0.199, -8.937e-7
-0.200, -8.959e-7
-0.201, -8.968e-7
-0.202, -9.015e-7
-0.203, -9.031e-7
-0.204, -8.943e-7
-0.205, -9.022e-7
-0.206, -9.035e-7
-0.207, -9.097e-7
-0.208, -9.151e-7
-0.209, -9.109e-7
-0.210, -9.172e-7
-0.211, -9.169e-7
-0.212, -9.257e-7
-0.213, -9.208e-7
-0.214, -9.269e-7
-0.215, -9.290e-7
-0.216, -9.309e-7
-0.217, -9.272e-7
-0.218, -9.349e-7
-0.219, -9.306e-7
-0.220, -9.419e-7
-0.221, -9.402e-7
-0.222, -9.429e-7
-0.223, -9.462e-7
-0.224, -9.474e-7
-0.225, -9.534e-7
-0.226, -9.482e-7
-0.227, -9.531e-7
-0.228, -9.552e-7
-0.229, -9.599e-7
-0.230, -9.638e-7
-0.231, -9.664e-7
-0.232, -9.674e-7
-0.233, -9.634e-7
-0.234, -9.686e-7
-0.235, -9.713e-7
-0.236, -9.776e-7
-0.237, -9.720e-7
-0.238, -9.780e-7
-0.239, -9.779e-7
-0.240, -9.806e-7
-0.241, -9.844e-7
-0.242, -9.831e-7
-0.243, -9.801e-7
-0.244, -9.893e-7
-0.245, -9.896e-7
-0.246, -9.916e-7
-0.247, -9.951e-7
-0.248, -9.973e-7
-0.249, -9.983e-7
-0.250, -9.996e-7
-0.251, -1.001e-6
-0.252, -1.005e-6
-0.253, -1.008e-6
-0.254, -1.007e-6
-0.255, -1.011e-6
-0.256, -1.011e-6
-0.257, -1.014e-6
-0.258, -1.018e-6
-0.259, -1.018e-6
-0.260, -1.023e-6
-0.261, -1.024e-6
-0.262, -1.021e-6
-0.263, -1.028e-6
-0.264, -1.030e-6
-0.265, -1.030e-6
-0.266, -1.030e-6
-0.267, -1.034e-6
-0.268, -1.033e-6
-0.269, -1.037e-6
-0.270, -1.038e-6
-0.271, -1.042e-6
-0.272, -1.044e-6
-0.273, -1.048e-6
-0.274, -1.047e-6
-0.275, -1.048e-6
-0.276, -1.054e-6
-0.277, -1.054e-6
-0.278, -1.055e-6
-0.279, -1.059e-6
-0.280, -1.061e-6
-0.281, -1.068e-6
-0.282, -1.063e-6
-0.283, -1.067e-6
-0.284, -1.072e-6
-0.285, -1.072e-6
-0.286, -1.070e-6
-0.287, -1.078e-6
-0.288, -1.074e-6
-0.289, -1.078e-6
-0.290, -1.080e-6
-0.291, -1.078e-6
-0.292, -1.086e-6
-0.293, -1.086e-6
-0.294, -1.078e-6
-0.295, -1.087e-6
-0.296, -1.092e-6
-0.297, -1.093e-6
-0.298, -1.090e-6
-0.299, -1.093e-6
-0.300, -1.099e-6
-0.301, -1.099e-6
-0.302, -1.099e-6
-0.303, -1.105e-6
-0.304, -1.107e-6
-0.305, -1.105e-6
-0.306, -1.111e-6
-0.307, -1.114e-6
-0.308, -1.117e-6
-0.309, -1.116e-6
-0.310, -1.120e-6
-0.311, -1.119e-6
-0.312, -1.121e-6
-0.313, -1.122e-6
-0.314, -1.124e-6
-0.315, -1.125e-6
-0.316, -1.131e-6
-0.317, -1.129e-6
-0.318, -1.132e-6
-0.319, -1.133e-6
-0.320, -1.128e-6
-0.321, -1.138e-6
-0.322, -1.135e-6
-0.323, -1.138e-6
-0.324, -1.144e-6
-0.325, -1.144e-6
-0.326, -1.145e-6
-0.327, -1.146e-6
-0.328, -1.150e-6
-0.329, -1.148e-6
-0.330, -1.153e-6
-0.331, -1.153e-6
-0.332, -1.162e-6
-0.333, -1.164e-6
-0.334, -1.156e-6
-0.335, -1.163e-6
-0.336, -1.165e-6
-0.337, -1.168e-6
-0.338, -1.168e-6
-0.339, -1.166e-6
-0.340, -1.173e-6
-0.341, -1.173e-6
-0.342, -1.170e-6
-0.343, -1.179e-6
-0.344, -1.177e-6
-0.345, -1.173e-6
-0.346, -1.178e-6
-0.347, -1.182e-6
-0.348, -1.184e-6
-0.349, -1.184e-6
-0.350, -1.186e-6
-0.351, -1.187e-6
-0.352, -1.192e-6
-0.353, -1.190e-6
-0.354, -1.193e-6
-0.355, -1.196e-6
-0.356, -1.206e-6
-0.357, -1.202e-6
-0.358, -1.196e-6
-0.359, -1.201e-6
-0.360, -1.204e-6
-0.361, -1.207e-6
-0.362, -1.208e-6
-0.363, -1.208e-6
-0.364, -1.212e-6
-0.365, -1.213e-6
-0.366, -1.212e-6
-0.367, -1.215e-6
-0.368, -1.218e-6
-0.369, -1.220e-6
-0.370, -1.220e-6
-0.371, -1.216e-6
-0.372, -1.227e-6
-0.373, -1.224e-6
-0.374, -1.227e-6
-0.375, -1.229e-6
-0.376, -1.232e-6
-0.377, -1.233e-6
-0.378, -1.233e-6
-0.379, -1.235e-6
-0.380, -1.239e-6
-0.381, -1.239e-6
-0.382, -1.241e-6
-0.383, -1.241e-6
-0.384, -1.252e-6
-0.385, -1.249e-6
-0.386, -1.248e-6
-0.387, -1.248e-6
-0.388, -1.254e-6
-0.389, -1.251e-6
-0.390, -1.254e-6
-0.391, -1.260e-6
-0.392, -1.256e-6
-0.393, -1.260e-6
-0.394, -1.260e-6
-0.395, -1.263e-6
-0.396, -1.262e-6
-0.397, -1.263e-6
-0.398, -1.264e-6
-0.399, -1.272e-6
-0.400, -1.270e-6
-0.401, -1.271e-6
-0.402, -1.273e-6
-0.403, -1.275e-6
-0.404, -1.276e-6
-0.405, -1.280e-6
-0.406, -1.282e-6
-0.407, -1.280e-6
-0.408, -1.285e-6
-0.409, -1.262e-6
-0.410, -1.280e-6
-0.411, -1.283e-6
-0.412, -1.287e-6
-0.413, -1.288e-6
-0.414, -1.292e-6
-0.415, -1.294e-6
-0.416, -1.294e-6
-0.417, -1.295e-6
-0.418, -1.297e-6
-0.419, -1.298e-6
-0.420, -1.301e-6
-0.421, -1.302e-6
-0.422, -1.297e-6
-0.423, -1.306e-6
-0.424, -1.308e-6
-0.425, -1.310e-6
-0.426, -1.310e-6
-0.427, -1.311e-6
-0.428, -1.314e-6
-0.429, -1.316e-6
-0.430, -1.315e-6
-0.431, -1.320e-6
-0.432, -1.320e-6
-0.433, -1.320e-6
-0.434, -1.324e-6
-0.435, -1.332e-6
-0.436, -1.327e-6
-0.437, -1.329e-6
-0.438, -1.330e-6
-0.439, -1.332e-6
-0.440, -1.336e-6
-0.441, -1.336e-6
-0.442, -1.335e-6
-0.443, -1.336e-6
-0.444, -1.344e-6
-0.445, -1.341e-6
-0.446, -1.343e-6
-0.447, -1.347e-6
-0.448, -1.339e-6
-0.449, -1.345e-6
-0.450, -1.349e-6
-0.451, -1.349e-6
-0.452, -1.354e-6
-0.453, -1.355e-6
-0.454, -1.352e-6
-0.455, -1.354e-6
-0.456, -1.362e-6
-0.457, -1.359e-6
-0.458, -1.362e-6
-0.459, -1.358e-6
-0.460, -1.368e-6
-0.461, -1.368e-6
-0.462, -1.362e-6
-0.463, -1.370e-6
-0.464, -1.372e-6
-0.465, -1.374e-6
-0.466, -1.374e-6
-0.467, -1.373e-6
-0.468, -1.378e-6
-0.469, -1.377e-6
-0.470, -1.379e-6
-0.471, -1.381e-6
-0.472, -1.384e-6
-0.473, -1.379e-6
-0.474, -1.382e-6
-0.475, -1.389e-6
-0.476, -1.390e-6
-0.477, -1.388e-6
-0.478, -1.391e-6
-0.479, -1.393e-6
-0.480, -1.397e-6
-0.481, -1.395e-6
-0.482, -1.397e-6
-0.483, -1.399e-6
-0.484, -1.406e-6
-0.485, -1.404e-6
-0.486, -1.410e-6
-0.487, -1.408e-6
-0.488, -1.410e-6
-0.489, -1.409e-6
-0.490, -1.410e-6
-0.491, -1.414e-6
-0.492, -1.417e-6
-0.493, -1.416e-6
-0.494, -1.417e-6
-0.495, -1.420e-6
-0.496, -1.422e-6
-0.497, -1.423e-6
-0.498, -1.424e-6
-0.499, -1.420e-6
-0.500, -1.428e-6
-0.501, -1.431e-6
-0.502, -1.429e-6
-0.503, -1.433e-6
-0.504, -1.434e-6
-0.505, -1.437e-6
-0.506, -1.438e-6
-0.507, -1.440e-6
-0.508, -1.441e-6
-0.509, -1.443e-6
-0.510, -1.442e-6
-0.511, -1.446e-6
-0.512, -1.454e-6
-0.513, -1.448e-6
-0.514, -1.450e-6
-0.515, -1.450e-6
-0.516, -1.458e-6
-0.517, -1.458e-6
-0.518, -1.454e-6
-0.519, -1.460e-6
-0.520, -1.461e-6
-0.521, -1.465e-6
-0.522, -1.464e-6
-0.523, -1.467e-6
-0.524, -1.467e-6
-0.525, -1.465e-6
-0.526, -1.468e-6
-0.527, -1.472e-6
-0.528, -1.477e-6
-0.529, -1.476e-6
-0.530, -1.477e-6
-0.531, -1.478e-6
-0.532, -1.484e-6
-0.533, -1.484e-6
-0.534, -1.483e-6
-0.535, -1.486e-6
-0.536, -1.488e-6
-0.537, -1.498e-6
-0.538, -1.494e-6
-0.539, -1.493e-6
-0.540, -1.498e-6
-0.541, -1.501e-6
-0.542, -1.499e-6
-0.543, -1.502e-6
-0.544, -1.504e-6
-0.545, -1.505e-6
-0.546, -1.506e-6
-0.547, -1.506e-6
-0.548, -1.513e-6
-0.549, -1.513e-6
-0.550, -1.507e-6
-0.551, -1.516e-6
-0.552, -1.518e-6
-0.553, -1.520e-6
-0.554, -1.522e-6
-0.555, -1.520e-6
-0.556, -1.527e-6
-0.557, -1.529e-6
-0.558, -1.527e-6
-0.559, -1.531e-6
-0.560, -1.536e-6
-0.561, -1.537e-6
-0.562, -1.537e-6
-0.563, -1.536e-6
-0.564, -1.543e-6
-0.565, -1.543e-6
-0.566, -1.545e-6
-0.567, -1.548e-6
-0.568, -1.552e-6
-0.569, -1.549e-6
-0.570, -1.553e-6
-0.571, -1.555e-6
-0.572, -1.559e-6
-0.573, -1.559e-6
-0.574, -1.563e-6
-0.575, -1.564e-6
-0.576, -1.559e-6
-0.577, -1.568e-6
-0.578, -1.569e-6
-0.579, -1.570e-6
-0.580, -1.575e-6
-0.581, -1.577e-6
-0.582, -1.579e-6
-0.583, -1.583e-6
-0.584, -1.582e-6
-0.585, -1.589e-6
-0.586, -1.586e-6
-0.587, -1.587e-6
-0.588, -1.602e-6
-0.589, -1.598e-6
-0.590, -1.599e-6
-0.591, -1.601e-6
-0.592, -1.607e-6
-0.593, -1.603e-6
-0.594, -1.607e-6
-0.595, -1.607e-6
-0.596, -1.614e-6
-0.597, -1.616e-6
-0.598, -1.616e-6
-0.599, -1.620e-6
-0.600, -1.624e-6
-0.601, -1.618e-6
-0.602, -1.625e-6
-0.603, -1.628e-6
-0.604, -1.632e-6
-0.605, -1.634e-6
-0.606, -1.635e-6
-0.607, -1.640e-6
-0.608, -1.642e-6
-0.609, -1.644e-6
-0.610, -1.645e-6
-0.611, -1.649e-6
-0.612, -1.655e-6
-0.613, -1.654e-6
-0.614, -1.641e-6
-0.615, -1.657e-6
-0.616, -1.663e-6
-0.617, -1.665e-6
-0.618, -1.665e-6
-0.619, -1.667e-6
-0.620, -1.675e-6
-0.621, -1.679e-6
-0.622, -1.673e-6
-0.623, -1.682e-6
-0.624, -1.684e-6
-0.625, -1.687e-6
-0.626, -1.688e-6
-0.627, -1.687e-6
-0.628, -1.697e-6
-0.629, -1.699e-6
-0.630, -1.698e-6
-0.631, -1.705e-6
-0.632, -1.709e-6
-0.633, -1.709e-6
-0.634, -1.713e-6
-0.635, -1.715e-6
-0.636, -1.719e-6
-0.637, -1.723e-6
-0.638, -1.723e-6
-0.639, -1.728e-6
-0.640, -1.740e-6
-0.641, -1.732e-6
-0.642, -1.739e-6
-0.643, -1.738e-6
-0.644, -1.743e-6
-0.645, -1.748e-6
-0.646, -1.748e-6
-0.647, -1.753e-6
-0.648, -1.757e-6
-0.649, -1.758e-6
-0.650, -1.761e-6
-0.651, -1.763e-6
-0.652, -1.765e-6
-0.653, -1.769e-6
-0.654, -1.770e-6
-0.655, -1.777e-6
-0.656, -1.782e-6
-0.657, -1.782e-6
-0.658, -1.785e-6
-0.659, -1.789e-6
-0.660, -1.794e-6
-0.661, -1.798e-6
-0.662, -1.797e-6
-0.663, -1.803e-6
-0.664, -1.808e-6
-0.665, -1.807e-6
-0.666, -1.812e-6
-0.667, -1.814e-6
-0.668, -1.820e-6
-0.669, -1.823e-6
-0.670, -1.826e-6
-0.671, -1.828e-6
-0.672, -1.834e-6
-0.673, -1.834e-6
-0.674, -1.841e-6
-0.675, -1.842e-6
-0.676, -1.848e-6
-0.677, -1.850e-6
-0.678, -1.845e-6
-0.679, -1.855e-6
-0.680, -1.860e-6
-0.681, -1.864e-6
-0.682, -1.865e-6
-0.683, -1.869e-6
-0.684, -1.877e-6
-0.685, -1.879e-6
-0.686, -1.879e-6
-0.687, -1.884e-6
-0.688, -1.887e-6
-0.689, -1.893e-6
-0.690, -1.892e-6
-0.691, -1.906e-6
-0.692, -1.908e-6
-0.693, -1.907e-6
-0.694, -1.906e-6
-0.695, -1.912e-6
-0.696, -1.916e-6
-0.697, -1.919e-6
-0.698, -1.921e-6
-0.699, -1.923e-6
-0.700, -1.932e-6
-0.701, -1.930e-6
-0.702, -1.935e-6
-0.703, -1.940e-6
-0.704, -1.936e-6
-0.705, -1.946e-6
-0.706, -1.951e-6
-0.707, -1.949e-6
-0.708, -1.957e-6
-0.709, -1.958e-6
-0.710, -1.961e-6
-0.711, -1.967e-6
-0.712, -1.970e-6
-0.713, -1.971e-6
-0.714, -1.975e-6
-0.715, -1.979e-6
-0.716, -1.994e-6
-0.717, -1.990e-6
-0.718, -1.989e-6
-0.719, -1.996e-6
-0.720, -1.998e-6
-0.721, -2.003e-6
-0.722, -2.001e-6
-0.723, -2.006e-6
-0.724, -2.012e-6
-0.725, -2.017e-6
-0.726, -2.016e-6
-0.727, -2.019e-6
-0.728, -2.029e-6
-0.729, -2.023e-6
-0.730, -2.033e-6
-0.731, -2.035e-6
-0.732, -2.039e-6
-0.733, -2.044e-6
-0.734, -2.046e-6
-0.735, -2.054e-6
-0.736, -2.057e-6
-0.737, -2.055e-6
-0.738, -2.064e-6
-0.739, -2.065e-6
-0.740, -2.072e-6
-0.741, -2.070e-6
-0.742, -2.082e-6
-0.743, -2.083e-6
-0.744, -2.090e-6
-0.745, -2.090e-6
-0.746, -2.091e-6
-0.747, -2.096e-6
-0.748, -2.098e-6
-0.749, -2.102e-6
-0.750, -2.104e-6
-0.751, -2.111e-6
-0.752, -2.113e-6
-0.753, -2.114e-6
-0.754, -2.119e-6
-0.755, -2.117e-6
-0.756, -2.128e-6
-0.757, -2.130e-6
-0.758, -2.131e-6
-0.759, -2.134e-6
-0.760, -2.143e-6
-0.761, -2.142e-6
-0.762, -2.142e-6
-0.763, -2.147e-6
-0.764, -2.154e-6
-0.765, -2.156e-6
-0.766, -2.155e-6
-0.767, -2.163e-6
-0.768, -2.164e-6
-0.769, -2.164e-6
-0.770, -2.170e-6
-0.771, -2.169e-6
-0.772, -2.177e-6
-0.773, -2.179e-6
-0.774, -2.174e-6
-0.775, -2.186e-6
-0.776, -2.188e-6
-0.777, -2.187e-6
-0.778, -2.190e-6
-0.779, -2.191e-6
-0.780, -2.191e-6
-0.781, -2.192e-6
-0.782, -2.194e-6
-0.783, -2.203e-6
-0.784, -2.204e-6
-0.785, -2.203e-6
-0.786, -2.202e-6
-0.787, -2.205e-6
-0.788, -2.213e-6
-0.789, -2.215e-6
-0.790, -2.213e-6
-0.791, -2.216e-6
-0.792, -2.217e-6
-0.793, -2.228e-6
-0.794, -2.221e-6
-0.795, -2.218e-6
-0.796, -2.226e-6
-0.797, -2.229e-6
-0.798, -2.223e-6
-0.799, -2.227e-6
-0.800, -2.228e-6
-0.801, -2.230e-6
-0.802, -2.230e-6
-0.803, -2.230e-6
-0.804, -2.236e-6
-0.805, -2.235e-6
-0.806, -2.229e-6
-0.807, -2.232e-6
-0.808, -2.239e-6
-0.809, -2.241e-6
-0.810, -2.238e-6
-0.811, -2.237e-6
-0.812, -2.240e-6
-0.813, -2.242e-6
-0.814, -2.238e-6
-0.815, -2.244e-6
-0.816, -2.247e-6
-0.817, -2.243e-6
-0.818, -2.243e-6
-0.819, -2.229e-6
-0.820, -2.246e-6
-0.821, -2.245e-6
-0.822, -2.245e-6
-0.823, -2.245e-6
-0.824, -2.246e-6
-0.825, -2.250e-6
-0.826, -2.248e-6
-0.827, -2.247e-6
-0.828, -2.252e-6
-0.829, -2.250e-6
-0.830, -2.249e-6
-0.831, -2.253e-6
-0.832, -2.245e-6
-0.833, -2.251e-6
-0.834, -2.249e-6
-0.835, -2.251e-6
-0.836, -2.257e-6
-0.837, -2.250e-6
-0.838, -2.255e-6
-0.839, -2.253e-6
-0.840, -2.256e-6
-0.841, -2.251e-6
-0.842, -2.257e-6
-0.843, -2.259e-6
-0.844, -2.257e-6
-0.845, -2.264e-6
-0.846, -2.255e-6
-0.847, -2.259e-6
-0.848, -2.258e-6
-0.849, -2.260e-6
-0.850, -2.258e-6
-0.851, -2.257e-6
-0.852, -2.261e-6
-0.853, -2.264e-6
-0.854, -2.257e-6
-0.855, -2.261e-6
-0.856, -2.264e-6
-0.857, -2.255e-6
-0.858, -2.258e-6
-0.859, -2.260e-6
-0.860, -2.261e-6
-0.861, -2.264e-6
-0.862, -2.258e-6
-0.863, -2.264e-6
-0.864, -2.264e-6
-0.865, -2.266e-6
-0.866, -2.265e-6
-0.867, -2.264e-6
-0.868, -2.270e-6
-0.869, -2.266e-6
-0.870, -2.260e-6
-0.871, -2.269e-6
-0.872, -2.270e-6
-0.873, -2.268e-6
-0.874, -2.269e-6
-0.875, -2.270e-6
-0.876, -2.271e-6
-0.877, -2.269e-6
-0.878, -2.271e-6
-0.879, -2.270e-6
-0.880, -2.273e-6
-0.881, -2.273e-6
-0.882, -2.274e-6
-0.883, -2.266e-6
-0.884, -2.273e-6
-0.885, -2.276e-6
-0.886, -2.273e-6
-0.887, -2.278e-6
-0.888, -2.277e-6
-0.889, -2.276e-6
-0.890, -2.278e-6
-0.891, -2.276e-6
-0.892, -2.283e-6
-0.893, -2.281e-6
-0.894, -2.280e-6
-0.895, -2.284e-6
-0.896, -2.292e-6
-0.897, -2.282e-6
-0.898, -2.288e-6
-0.899, -2.284e-6
-0.900, -2.288e-6
-0.901, -2.287e-6
-0.902, -2.285e-6
-0.903, -2.289e-6
-0.904, -2.293e-6
-0.905, -2.291e-6
-0.906, -2.289e-6
-0.907, -2.292e-6
-0.908, -2.292e-6
-0.909, -2.293e-6
-0.910, -2.290e-6
-0.911, -2.296e-6
-0.912, -2.299e-6
-0.913, -2.295e-6
-0.914, -2.298e-6
-0.915, -2.295e-6
-0.916, -2.304e-6
-0.917, -2.303e-6
-0.918, -2.300e-6
-0.919, -2.303e-6
-0.920, -2.309e-6
-0.921, -2.311e-6
-0.922, -2.310e-6
-0.923, -2.306e-6
-0.924, -2.315e-6
-0.925, -2.314e-6
-0.926, -2.311e-6
-0.927, -2.314e-6
-0.928, -2.316e-6
-0.929, -2.319e-6
-0.930, -2.317e-6
-0.931, -2.318e-6
-0.932, -2.321e-6
-0.933, -2.324e-6
-0.934, -2.312e-6
-0.935, -2.323e-6
-0.936, -2.327e-6
-0.937, -2.327e-6
-0.938, -2.327e-6
-0.939, -2.328e-6
-0.940, -2.336e-6
-0.941, -2.333e-6
-0.942, -2.332e-6
-0.943, -2.336e-6
-0.944, -2.339e-6
-0.945, -2.341e-6
-0.946, -2.342e-6
-0.947, -2.348e-6
-0.948, -2.350e-6
-0.949, -2.351e-6
-0.950, -2.349e-6
-0.951, -2.351e-6
-0.952, -2.354e-6
-0.953, -2.356e-6
-0.954, -2.356e-6
-0.955, -2.353e-6
-0.956, -2.362e-6
-0.957, -2.363e-6
-0.958, -2.363e-6
-0.959, -2.364e-6
-0.960, -2.364e-6
-0.961, -2.366e-6
-0.962, -2.369e-6
-0.963, -2.373e-6
-0.964, -2.375e-6
-0.965, -2.380e-6
-0.966, -2.376e-6
-0.967, -2.382e-6
-0.968, -2.386e-6
-0.969, -2.384e-6
-0.970, -2.390e-6
-0.971, -2.391e-6
-0.972, -2.393e-6
-0.973, -2.395e-6
-0.974, -2.394e-6
-0.975, -2.399e-6
-0.976, -2.402e-6
-0.977, -2.406e-6
-0.978, -2.405e-6
-0.979, -2.408e-6
-0.980, -2.413e-6
-0.981, -2.419e-6
-0.982, -2.413e-6
-0.983, -2.419e-6
-0.984, -2.424e-6
-0.985, -2.419e-6
-0.986, -2.427e-6
-0.987, -2.426e-6
-0.988, -2.437e-6
-0.989, -2.433e-6
-0.990, -2.435e-6
-0.991, -2.439e-6
-0.992, -2.440e-6
-0.993, -2.445e-6
-0.994, -2.446e-6
-0.995, -2.450e-6
-0.996, -2.455e-6
-0.997, -2.457e-6
-0.998, -2.466e-6
-0.999, -2.465e-6
-1.000, -2.468e-6
-1.001, -2.467e-6
-1.002, -2.472e-6
-1.003, -2.473e-6
-1.004, -2.480e-6
-1.005, -2.480e-6
-1.006, -2.481e-6
-1.007, -2.489e-6
-1.008, -2.492e-6
-1.009, -2.492e-6
-1.010, -2.498e-6
-1.011, -2.490e-6
-1.012, -2.504e-6
-1.013, -2.506e-6
-1.014, -2.508e-6
-1.015, -2.508e-6
-1.016, -2.515e-6
-1.017, -2.515e-6
-1.018, -2.520e-6
-1.019, -2.522e-6
-1.020, -2.530e-6
-1.021, -2.532e-6
-1.022, -2.532e-6
-1.023, -2.535e-6
-1.024, -2.519e-6
-1.025, -2.540e-6
-1.026, -2.544e-6
-1.027, -2.545e-6
-1.028, -2.551e-6
-1.029, -2.553e-6
-1.030, -2.557e-6
-1.031, -2.557e-6
-1.032, -2.565e-6
-1.033, -2.569e-6
-1.034, -2.570e-6
-1.035, -2.570e-6
-1.036, -2.576e-6
-1.037, -2.577e-6
-1.038, -2.582e-6
-1.039, -2.587e-6
-1.040, -2.588e-6
-1.041, -2.591e-6
-1.042, -2.598e-6
-1.043, -2.596e-6
-1.044, -2.605e-6
-1.045, -2.608e-6
-1.046, -2.608e-6
-1.047, -2.615e-6
-1.048, -2.620e-6
-1.049, -2.630e-6
-1.050, -2.624e-6
-1.051, -2.627e-6
-1.052, -2.632e-6
-1.053, -2.633e-6
-1.054, -2.639e-6
-1.055, -2.639e-6
-1.056, -2.646e-6
-1.057, -2.647e-6
-1.058, -2.652e-6
-1.059, -2.651e-6
-1.060, -2.658e-6
-1.061, -2.665e-6
-1.062, -2.657e-6
-1.063, -2.667e-6
-1.064, -2.671e-6
-1.065, -2.673e-6
-1.066, -2.674e-6
-1.067, -2.683e-6
-1.068, -2.686e-6
-1.069, -2.687e-6
-1.070, -2.690e-6
-1.071, -2.695e-6
-1.072, -2.698e-6
-1.073, -2.699e-6
-1.074, -2.706e-6
-1.075, -2.702e-6
-1.076, -2.712e-6
-1.077, -2.719e-6
-1.078, -2.715e-6
-1.079, -2.722e-6
-1.080, -2.726e-6
-1.081, -2.727e-6
-1.082, -2.729e-6
-1.083, -2.731e-6
-1.084, -2.739e-6
-1.085, -2.742e-6
-1.086, -2.741e-6
-1.087, -2.751e-6
-1.088, -2.745e-6
-1.089, -2.751e-6
-1.090, -2.753e-6
-1.091, -2.757e-6
-1.092, -2.766e-6
-1.093, -2.766e-6
-1.094, -2.767e-6
-1.095, -2.771e-6
-1.096, -2.779e-6
-1.097, -2.780e-6
-1.098, -2.784e-6
-1.099, -2.785e-6
-1.100, -2.793e-6
-1.101, -2.799e-6
-1.102, -2.794e-6
-1.103, -2.803e-6
-1.104, -2.802e-6
-1.105, -2.805e-6
-1.106, -2.809e-6
-1.107, -2.808e-6
-1.108, -2.817e-6
-1.109, -2.818e-6
-1.110, -2.822e-6
-1.111, -2.827e-6
-1.112, -2.829e-6
-1.113, -2.823e-6
-1.114, -2.836e-6
-1.115, -2.835e-6
-1.116, -2.841e-6
-1.117, -2.841e-6
-1.118, -2.848e-6
-1.119, -2.846e-6
-1.120, -2.853e-6
-1.121, -2.858e-6
-1.122, -2.856e-6
-1.123, -2.861e-6
-1.124, -2.868e-6
-1.125, -2.871e-6
-1.126, -2.873e-6
-1.127, -2.877e-6
-1.128, -2.883e-6
-1.129, -2.881e-6
-1.130, -2.880e-6
-1.131, -2.885e-6
-1.132, -2.889e-6
-1.133, -2.895e-6
-1.134, -2.898e-6
-1.135, -2.900e-6
-1.136, -2.903e-6
-1.137, -2.904e-6
-1.138, -2.910e-6
-1.139, -2.900e-6
-1.140, -2.913e-6
-1.141, -2.916e-6
-1.142, -2.918e-6
-1.143, -2.924e-6
-1.144, -2.927e-6
-1.145, -2.927e-6
-1.146, -2.931e-6
-1.147, -2.933e-6
-1.148, -2.941e-6
-1.149, -2.937e-6
-1.150, -2.942e-6
-1.151, -2.950e-6
-1.152, -2.960e-6
-1.153, -2.951e-6
-1.154, -2.957e-6
-1.155, -2.958e-6
-1.156, -2.966e-6
-1.157, -2.968e-6
-1.158, -2.964e-6
-1.159, -2.970e-6
-1.160, -2.976e-6
-1.161, -2.975e-6
-1.162, -2.980e-6
-1.163, -2.983e-6
-1.164, -2.981e-6
-1.165, -2.985e-6
-1.166, -2.985e-6
-1.167, -2.996e-6
-1.168, -2.999e-6
-1.169, -2.997e-6
-1.170, -3.000e-6
-1.171, -3.003e-6
-1.172, -3.009e-6
-1.173, -3.013e-6
-1.174, -3.008e-6
-1.175, -3.018e-6
-1.176, -3.021e-6
-1.177, -3.023e-6
-1.178, -3.022e-6
-1.179, -3.029e-6
-1.180, -3.034e-6
-1.181, -3.035e-6
-1.182, -3.034e-6
-1.183, -3.039e-6
-1.184, -3.044e-6
-1.185, -3.046e-6
-1.186, -3.048e-6
-1.187, -3.050e-6
-1.188, -3.058e-6
-1.189, -3.056e-6
-1.190, -3.049e-6
-1.191, -3.063e-6
-1.192, -3.064e-6
-1.193, -3.067e-6
-1.194, -3.070e-6
-1.195, -3.071e-6
-1.196, -3.080e-6
-1.197, -3.081e-6
-1.198, -3.081e-6
-1.199, -3.087e-6
-1.200, -2.727e-6
-1.199, -2.539e-6
-1.198, -2.468e-6
-1.197, -2.417e-6
-1.196, -2.368e-6
-1.195, -2.330e-6
-1.194, -2.296e-6
-1.193, -2.262e-6
-1.192, -2.232e-6
-1.191, -2.209e-6
-1.190, -2.177e-6
-1.189, -2.158e-6
-1.188, -2.125e-6
-1.187, -2.102e-6
-1.186, -2.084e-6
-1.185, -2.058e-6
-1.184, -2.035e-6
-1.183, -2.016e-6
-1.182, -1.993e-6
-1.181, -1.982e-6
-1.180, -1.957e-6
-1.179, -1.935e-6
-1.178, -1.924e-6
-1.177, -1.904e-6
-1.176, -1.890e-6
-1.175, -1.867e-6
-1.174, -1.850e-6
-1.173, -1.836e-6
-1.172, -1.816e-6
-1.171, -1.800e-6
-1.170, -1.785e-6
-1.169, -1.774e-6
-1.168, -1.757e-6
-1.167, -1.739e-6
-1.166, -1.727e-6
-1.165, -1.721e-6
-1.164, -1.695e-6
-1.163, -1.684e-6
-1.162, -1.671e-6
-1.161, -1.656e-6
-1.160, -1.641e-6
-1.159, -1.630e-6
-1.158, -1.613e-6
-1.157, -1.607e-6
-1.156, -1.591e-6
-1.155, -1.577e-6
-1.154, -1.564e-6
-1.153, -1.554e-6
-1.152, -1.532e-6
-1.151, -1.523e-6
-1.150, -1.513e-6
-1.149, -1.503e-6
-1.148, -1.491e-6
-1.147, -1.478e-6
-1.146, -1.470e-6
-1.145, -1.457e-6
-1.144, -1.447e-6
-1.143, -1.434e-6
-1.142, -1.420e-6
-1.141, -1.415e-6
-1.140, -1.401e-6
-1.139, -1.396e-6
-1.138, -1.381e-6
-1.137, -1.367e-6
-1.136, -1.362e-6
-1.135, -1.349e-6
-1.134, -1.341e-6
-1.133, -1.334e-6
-1.132, -1.320e-6
-1.131, -1.307e-6
-1.130, -1.301e-6
-1.129, -1.293e-6
-1.128, -1.282e-6
-1.127, -1.262e-6
-1.126, -1.262e-6
-1.125, -1.250e-6
-1.124, -1.242e-6
-1.123, -1.231e-6
-1.122, -1.223e-6
-1.121, -1.218e-6
-1.120, -1.205e-6
-1.119, -1.191e-6
-1.118, -1.190e-6
-1.117, -1.178e-6
-1.116, -1.170e-6
-1.115, -1.159e-6
-1.114, -1.161e-6
-1.113, -1.146e-6
-1.112, -1.137e-6
-1.111, -1.127e-6
-1.110, -1.121e-6
-1.109, -1.114e-6
-1.108, -1.101e-6
-1.107, -1.094e-6
-1.106, -1.090e-6
-1.105, -1.078e-6
-1.104, -1.072e-6
-1.103, -1.061e-6
-1.102, -1.052e-6
-1.101, -1.041e-6
-1.100, -1.036e-6
-1.099, -1.028e-6
-1.098, -1.022e-6
-1.097, -1.019e-6
-1.096, -1.005e-6
-1.095, -1.001e-6
-1.094, -9.880e-7
-1.093, -9.921e-7
-1.092, -9.760e-7
-1.091, -9.677e-7
-1.090, -9.653e-7
-1.089, -9.582e-7
-1.088, -9.562e-7
-1.087, -9.416e-7
-1.086, -9.364e-7
-1.085, -9.285e-7
-1.084, -9.182e-7
-1.083, -9.129e-7
-1.082, -9.067e-7
-1.081, -9.008e-7
-1.080, -8.927e-7
-1.079, -8.837e-7
-1.078, -8.775e-7
-1.077, -8.731e-7
-1.076, -8.674e-7
-1.075, -8.631e-7
-1.074, -8.505e-7
-1.073, -8.447e-7
-1.072, -8.419e-7
-1.071, -8.307e-7
-1.070, -8.282e-7
-1.069, -8.214e-7
-1.068, -8.107e-7
-1.067, -8.045e-7
-1.066, -8.064e-7
-1.065, -7.952e-7
-1.064, -7.855e-7
-1.063, -7.877e-7
-1.062, -7.750e-7
-1.061, -7.720e-7
-1.060, -7.609e-7
-1.059, -7.501e-7
-1.058, -7.544e-7
-1.057, -7.433e-7
-1.056, -7.407e-7
-1.055, -7.305e-7
-1.054, -7.251e-7
-1.053, -7.237e-7
-1.052, -7.094e-7
-1.051, -7.054e-7
-1.050, -6.919e-7
-1.049, -6.991e-7
-1.048, -6.903e-7
-1.047, -6.849e-7
-1.046, -6.747e-7
-1.045, -6.721e-7
-1.044, -6.649e-7
-1.043, -6.639e-7
-1.042, -6.531e-7
-1.041, -6.507e-7
-1.040, -6.451e-7
-1.039, -6.369e-7
-1.038, -6.341e-7
-1.037, -6.365e-7
-1.036, -6.224e-7
-1.035, -6.152e-7
-1.034, -6.112e-7
-1.033, -6.055e-7
-1.032, -6.009e-7
-1.031, -5.943e-7
-1.030, -5.896e-7
-1.029, -5.884e-7
-1.028, -5.784e-7
-1.027, -5.729e-7
-1.026, -5.722e-7
-1.025, -5.676e-7
-1.024, -5.798e-7
-1.023, -5.531e-7
-1.022, -5.488e-7
-1.021, -5.465e-7
-1.020, -5.400e-7
-1.019, -5.328e-7
-1.018, -5.312e-7
-1.017, -5.227e-7
-1.016, -5.194e-7
-1.015, -5.124e-7
-1.014, -5.087e-7
-1.013, -5.055e-7
-1.012, -4.993e-7
-1.011, -4.957e-7
-1.010, -4.946e-7
-1.009, -4.839e-7
-1.008, -4.825e-7
-1.007, -4.711e-7
-1.006, -4.707e-7
-1.005, -4.651e-7
-1.004, -4.612e-7
-1.003, -4.551e-7
-1.002, -4.505e-7
-1.001, -4.423e-7
-1.000, -4.434e-7
-0.999, -4.286e-7
-0.998, -4.288e-7
-0.997, -4.285e-7
-0.996, -4.231e-7
-0.995, -4.172e-7
-0.994, -4.111e-7
-0.993, -4.116e-7
-0.992, -4.057e-7
-0.991, -3.999e-7
-0.990, -3.982e-7
-0.989, -3.956e-7
-0.988, -3.833e-7
-0.987, -3.852e-7
-0.986, -3.877e-7
-0.985, -3.757e-7
-0.984, -3.712e-7
-0.983, -3.648e-7
-0.982, -3.630e-7
-0.981, -3.594e-7
-0.980, -3.557e-7
-0.979, -3.459e-7
-0.978, -3.468e-7
-0.977, -3.440e-7
-0.976, -3.386e-7
-0.975, -3.349e-7
-0.974, -3.282e-7
-0.973, -3.295e-7
-0.972, -3.211e-7
-0.971, -3.164e-7
-0.970, -3.162e-7
-0.969, -3.128e-7
-0.968, -3.019e-7
-0.967, -2.996e-7
-0.966, -2.959e-7
-0.965, -2.938e-7
-0.964, -2.888e-7
-0.963, -2.858e-7
-0.962, -2.852e-7
-0.961, -2.790e-7
-0.960, -2.821e-7
-0.959, -2.730e-7
-0.958, -2.689e-7
-0.957, -2.673e-7
-0.956, -2.559e-7
-0.955, -2.529e-7
-0.954, -2.529e-7
-0.953, -2.523e-7
-0.952, -2.465e-7
-0.951, -2.401e-7
-0.950, -2.368e-7
-0.949, -2.352e-7
-0.948, -2.286e-7
-0.947, -2.205e-7
-0.946, -2.263e-7
-0.945, -2.177e-7
-0.944, -2.167e-7
-0.943, -2.099e-7
-0.942, -2.082e-7
-0.941, -2.094e-7
-0.940, -2.043e-7
-0.939, -1.993e-7
-0.938, -1.966e-7
-0.937, -1.926e-7
-0.936, -1.931e-7
-0.935, -1.884e-7
-0.934, -1.895e-7
-0.933, -1.841e-7
-0.932, -1.760e-7
-0.931, -1.730e-7
-0.930, -1.690e-7
-0.929, -1.701e-7
-0.928, -1.652e-7
-0.927, -1.600e-7
-0.926, -1.537e-7
-0.925, -1.572e-7
-0.924, -1.516e-7
-0.923, -1.477e-7
-0.922, -1.406e-7
-0.921, -1.386e-7
-0.920, -1.379e-7
-0.919, -1.336e-7
-0.918, -1.349e-7
-0.917, -1.348e-7
-0.916, -1.216e-7
-0.915, -1.222e-7
-0.914, -1.214e-7
-0.913, -1.186e-7
-0.912, -1.120e-7
-0.911, -1.077e-7
-0.910, -1.085e-7
-0.909, -1.158e-7
-0.908, -1.020e-7
-0.907, -9.620e-8
-0.906, -9.859e-8
-0.905, -9.220e-8
-0.904, -8.955e-8
-0.903, -8.752e-8
-0.902, -8.410e-8
-0.901, -8.132e-8
-0.900, -7.838e-8
-0.899, -7.312e-8
-0.898, -7.417e-8
-0.897, -6.869e-8
-0.896, -5.981e-8
-0.895, -6.222e-8
-0.894, -5.905e-8
-0.893, -5.680e-8
-0.892, -5.352e-8
-0.891, -4.950e-8
-0.890, -5.392e-8
-0.889, -4.024e-8
-0.888, -4.646e-8
-0.887, -4.002e-8
-0.886, -3.640e-8
-0.885, -3.503e-8
-0.884, -3.146e-8
-0.883, -3.379e-8
-0.882, -3.151e-8
-0.881, -2.459e-8
-0.880, -2.091e-8
-0.879, -1.648e-8
-0.878, -1.584e-8
-0.877, -1.525e-8
-0.876, -1.155e-8
-0.875, -4.218e-9
-0.874, -6.664e-9
-0.873, -1.996e-9
-0.872, -1.158e-9
-0.871, 3.968e-9
-0.870, 6.765e-9
-0.869, 3.705e-9
-0.868, 1.373e-8
-0.867, 1.560e-8
-0.866, 1.847e-8
-0.865, 1.594e-8
-0.864, 2.321e-8
-0.863, 2.519e-8
-0.862, 2.923e-8
-0.861, 2.700e-8
-0.860, 3.509e-8
-0.859, 4.013e-8
-0.858, 2.696e-8
-0.857, 3.926e-8
-0.856, 4.466e-8
-0.855, 4.977e-8
-0.854, 4.772e-8
-0.853, 4.817e-8
-0.852, 6.019e-8
-0.851, 5.953e-8
-0.850, 5.898e-8
-0.849, 6.421e-8
-0.848, 6.447e-8
-0.847, 6.818e-8
-0.846, 7.022e-8
-0.845, 8.066e-8
-0.844, 7.939e-8
-0.843, 8.500e-8
-0.842, 8.091e-8
-0.841, 8.605e-8
-0.840, 8.689e-8
-0.839, 9.090e-8
-0.838, 9.401e-8
-0.837, 9.316e-8
-0.836, 9.932e-8
-0.835, 1.006e-7
-0.834, 1.039e-7
-0.833, 1.065e-7
-0.832, 1.007e-7
-0.831, 1.108e-7
-0.830, 1.173e-7
-0.829, 1.156e-7
-0.828, 1.195e-7
-0.827, 1.240e-7
-0.826, 1.281e-7
-0.825, 1.265e-7
-0.824, 1.271e-7
-0.823, 1.357e-7
-0.822, 1.365e-7
-0.821, 1.365e-7
-0.820, 1.394e-7
-0.819, 1.389e-7
-0.818, 1.455e-7
-0.817, 1.478e-7
-0.816, 1.519e-7
-0.815, 1.572e-7
-0.814, 1.536e-7
-0.813, 1.581e-7
-0.812, 1.612e-7
-0.811, 1.685e-7
-0.810, 1.656e-7
-0.809, 1.710e-7
-0.808, 1.743e-7
-0.807, 1.753e-7
-0.806, 1.787e-7
-0.805, 1.798e-7
-0.804, 1.842e-7
-0.803, 1.899e-7
-0.802, 1.897e-7
-0.801, 1.939e-7
-0.800, 1.968e-7
-0.799, 2.019e-7
-0.798, 2.020e-7
-0.797, 1.997e-7
-0.796, 2.092e-7
-0.795, 2.117e-7
-0.794, 2.234e-7
-0.793, 2.168e-7
-0.792, 2.198e-7
-0.791, 2.227e-7
-0.790, 2.292e-7
-0.789, 2.227e-7
-0.788, 2.314e-7
-0.787, 2.351e-7
-0.786, 2.370e-7
-0.785, 2.377e-7
-0.784, 2.419e-7
-0.783, 2.430e-7
-0.782, 2.509e-7
-0.781, 2.403e-7
-0.780, 2.560e-7
-0.779, 2.533e-7
-0.778, 2.587e-7
-0.777, 2.637e-7
-0.776, 2.681e-7
-0.775, 2.682e-7
-0.774, 2.700e-7
-0.773, 2.716e-7
-0.772, 2.740e-7
-0.771, 2.824e-7
-0.770, 2.789e-7
-0.769, 2.867e-7
-0.768, 2.859e-7
-0.767, 2.929e-7
-0.766, 2.962e-7
-0.765, 2.945e-7
-0.764, 3.018e-7
-0.763, 3.069e-7
-0.762, 3.042e-7
-0.761, 3.096e-7
-0.760, 3.109e-7
-0.759, 3.158e-7
-0.758, 3.125e-7
-0.757, 3.227e-7
-0.756, 3.216e-7
-0.755, 3.206e-7
-0.754, 3.293e-7
-0.753, 3.304e-7
-0.752, 3.341e-7
-0.751, 3.400e-7
-0.750, 3.429e-7
-0.749, 3.402e-7
-0.748, 3.468e-7
-0.747, 3.522e-7
-0.746, 3.489e-7
-0.745, 3.565e-7
-0.744, 3.610e-7
-0.743, 3.691e-7
-0.742, 3.637e-7
-0.741, 3.678e-7
-0.740, 3.766e-7
-0.739, 3.739e-7
-0.738, 3.756e-7
-0.737, 3.789e-7
-0.736, 3.805e-7
-0.735, 3.919e-7
-0.734, 3.895e-7
-0.733, 3.867e-7
-0.732, 3.949e-7
-0.731, 4.006e-7
-0.730, 3.914e-7
-0.729, 4.013e-7
-0.728, 4.000e-7
-0.727, 4.096e-7
-0.726, 4.136e-7
-0.725, 4.125e-7
-0.724, 4.158e-7
-0.723, 4.235e-7
-0.722, 4.231e-7
-0.721, 4.244e-7
-0.720, 4.273e-7
-0.719, 4.333e-7
-0.718, 4.336e-7
-0.717, 4.406e-7
-0.716, 4.412e-7
-0.715, 4.437e-7
-0.714, 4.447e-7
-0.713, 4.481e-7
-0.712, 4.481e-7
-0.711, 4.487e-7
-0.710, 4.583e-7
-0.709, 4.568e-7
-0.708, 4.615e-7
-0.707, 4.669e-7
-0.706, 4.647e-7
-0.705, 4.677e-7
-0.704, 4.628e-7
-0.703, 4.769e-7
-0.702, 4.750e-7
-0.701, 4.787e-7
-0.700, 4.809e-7
-0.699, 4.867e-7
-0.698, 4.853e-7
-0.697, 4.892e-7
-0.696, 4.927e-7
-0.695, 4.952e-7
-0.694, 4.977e-7
-0.693, 4.995e-7
-0.692, 5.046e-7
-0.691, 5.086e-7
-0.690, 5.044e-7
-0.689, 5.147e-7
-0.688, 5.102e-7
-0.687, 5.168e-7
-0.686, 5.197e-7
-0.685, 5.167e-7
-0.684, 5.247e-7
-0.683, 5.224e-7
-0.682, 5.246e-7
-0.681, 5.258e-7
-0.680, 5.290e-7
-0.679, 5.286e-7
-0.678, 5.323e-7
-0.677, 5.328e-7
-0.676, 5.409e-7
-0.675, 5.429e-7
-0.674, 5.413e-7
-0.673, 5.461e-7
-0.672, 5.472e-7
-0.671, 5.507e-7
-0.670, 5.556e-7
-0.669, 5.540e-7
-0.668, 5.601e-7
-0.667, 5.602e-7
-0.666, 5.564e-7
-0.665, 5.625e-7
-0.664, 5.630e-7
-0.663, 5.690e-7
-0.662, 5.673e-7
-0.661, 5.703e-7
-0.660, 5.751e-7
-0.659, 5.766e-7
-0.658, 5.745e-7
-0.657, 5.800e-7
-0.656, 5.811e-7
-0.655, 5.796e-7
-0.654, 5.883e-7
-0.653, 5.727e-7
-0.652, 5.886e-7
-0.651, 5.956e-7
-0.650, 5.900e-7
-0.649, 5.962e-7
-0.648, 5.993e-7
-0.647, 5.990e-7
-0.646, 6.001e-7
-0.645, 5.985e-7
-0.644, 6.055e-7
-0.643, 6.067e-7
-0.642, 6.107e-7
-0.641, 6.084e-7
-0.640, 6.217e-7
-0.639, 6.160e-7
-0.638, 6.173e-7
-0.637, 6.147e-7
-0.636, 6.230e-7
-0.635, 6.217e-7
-0.634, 6.207e-7
-0.633, 6.234e-7
-0.632, 6.271e-7
-0.631, 6.280e-7
-0.630, 6.284e-7
-0.629, 6.313e-7
-0.628, 6.340e-7
-0.627, 6.335e-7
-0.626, 6.359e-7
-0.625, 6.377e-7
-0.624, 6.380e-7
-0.623, 6.435e-7
-0.622, 6.438e-7
-0.621, 6.421e-7
-0.620, 6.484e-7
-0.619, 6.501e-7
-0.618, 6.456e-7
-0.617, 6.516e-7
-0.616, 6.564e-7
-0.615, 6.349e-7
-0.614, 6.473e-7
-0.613, 6.543e-7
-0.612, 6.609e-7
-0.611, 6.633e-7
-0.610, 6.619e-7
-0.609, 6.621e-7
-0.608, 6.660e-7
-0.607, 6.707e-7
-0.606, 6.713e-7
-0.605, 6.666e-7
-0.604, 6.745e-7
-0.603, 6.717e-7
-0.602, 6.708e-7
-0.601, 6.755e-7
-0.600, 6.756e-7
-0.599, 6.847e-7
-0.598, 6.806e-7
-0.597, 6.822e-7
-0.596, 6.844e-7
-0.595, 6.876e-7
-0.594, 6.874e-7
-0.593, 6.887e-7
-0.592, 6.897e-7
-0.591, 6.927e-7
-0.590, 6.960e-7
-0.589, 7.014e-7
-0.588, 7.002e-7
-0.587, 7.001e-7
-0.586, 7.026e-7
-0.585, 7.013e-7
-0.584, 7.025e-7
-0.583, 7.063e-7
-0.582, 7.038e-7
-0.581, 7.068e-7
-0.580, 7.092e-7
-0.579, 7.126e-7
-0.578, 7.128e-7
-0.577, 7.120e-7
-0.576, 7.070e-7
-0.575, 7.155e-7
-0.574, 7.155e-7
-0.573, 7.217e-7
-0.572, 7.209e-7
-0.571, 7.247e-7
-0.570, 7.220e-7
-0.569, 7.230e-7
-0.568, 7.271e-7
-0.567, 7.279e-7
-0.566, 7.314e-7
-0.565, 7.279e-7
-0.564, 7.346e-7
-0.563, 7.332e-7
-0.562, 7.342e-7
-0.561, 7.342e-7
-0.560, 7.370e-7
-0.559, 7.387e-7
-0.558, 7.382e-7
-0.557, 7.373e-7
-0.556, 7.464e-7
-0.555, 7.446e-7
-0.554, 7.431e-7
-0.553, 7.452e-7
-0.552, 7.463e-7
-0.551, 7.455e-7
-0.550, 7.510e-7
-0.549, 7.489e-7
-0.548, 7.543e-7
-0.547, 7.554e-7
-0.546, 7.573e-7
-0.545, 7.561e-7
-0.544, 7.598e-7
-0.543, 7.608e-7
-0.542, 7.605e-7
-0.541, 7.598e-7
-0.540, 7.663e-7
-0.539, 7.696e-7
-0.538, 7.744e-7
-0.537, 7.704e-7
-0.536, 7.709e-7
-0.535, 7.747e-7
-0.534, 7.751e-7
-0.533, 7.728e-7
-0.532, 7.762e-7
-0.531, 7.804e-7
-0.530, 7.775e-7
-0.529, 7.773e-7
-0.528, 7.820e-7
-0.527, 7.822e-7
-0.526, 7.835e-7
-0.525, 7.766e-7
-0.524, 7.855e-7
-0.523, 7.906e-7
-0.522, 7.883e-7
-0.521, 7.905e-7
-0.520, 7.915e-7
-0.519, 7.946e-7
-0.518, 7.933e-7
-0.517, 7.965e-7
-0.516, 7.993e-7
-0.515, 7.993e-7
-0.514, 7.968e-7
-0.513, 8.020e-7
-0.512, 8.066e-7
-0.511, 8.054e-7
-0.510, 8.068e-7
-0.509, 8.028e-7
-0.508, 8.123e-7
-0.507, 8.082e-7
-0.506, 8.084e-7
-0.505, 8.119e-7
-0.504, 8.141e-7
-0.503, 8.162e-7
-0.502, 8.135e-7
-0.501, 8.142e-7
-0.500, 8.188e-7
-0.499, 8.126e-7
-0.498, 8.180e-7
-0.497, 8.219e-7
-0.496, 8.204e-7
-0.495, 8.259e-7
-0.494, 8.223e-7
-0.493, 8.251e-7
-0.492, 8.285e-7
-0.491, 8.305e-7
-0.490, 8.274e-7
-0.489, 8.304e-7
-0.488, 8.340e-7
-0.487, 8.438e-7
-0.486, 8.341e-7
-0.485, 8.351e-7
-0.484, 8.392e-7
-0.483, 8.416e-7
-0.482, 8.374e-7
-0.481, 8.416e-7
-0.480, 8.395e-7
-0.479, 8.457e-7
-0.478, 8.456e-7
-0.477, 8.458e-7
-0.476, 8.461e-7
-0.475, 8.509e-7
-0.474, 8.387e-7
-0.473, 8.484e-7
-0.472, 8.506e-7
-0.471, 8.579e-7
-0.470, 8.545e-7
-0.469, 8.511e-7
-0.468, 8.593e-7
-0.467, 8.596e-7
-0.466, 8.583e-7
-0.465, 8.587e-7
-0.464, 8.626e-7
-0.463, 8.614e-7
-0.462, 8.675e-7
-0.461, 8.608e-7
-0.460, 8.672e-7
-0.459, 8.708e-7
-0.458, 8.655e-7
-0.457, 8.705e-7
-0.456, 8.709e-7
-0.455, 8.717e-7
-0.454, 8.748e-7
-0.453, 8.726e-7
-0.452, 8.782e-7
-0.451, 8.727e-7
-0.450, 8.780e-7
-0.449, 8.798e-7
-0.448, 8.725e-7
-0.447, 8.859e-7
-0.446, 8.813e-7
-0.445, 8.782e-7
-0.444, 8.849e-7
-0.443, 8.862e-7
-0.442, 8.856e-7
-0.441, 8.899e-7
-0.440, 8.934e-7
-0.439, 8.925e-7
-0.438, 8.884e-7
-0.437, 8.927e-7
-0.436, 8.990e-7
-0.435, 9.027e-7
-0.434, 8.959e-7
-0.433, 8.975e-7
-0.432, 9.023e-7
-0.431, 9.009e-7
-0.430, 9.006e-7
-0.429, 9.011e-7
-0.428, 9.050e-7
-0.427, 9.065e-7
-0.426, 9.039e-7
-0.425, 9.067e-7
-0.424, 9.084e-7
-0.423, 9.049e-7
-0.422, 9.094e-7
-0.421, 9.121e-7
-0.420, 9.132e-7
-0.419, 9.122e-7
-0.418, 9.156e-7
-0.417, 9.167e-7
-0.416, 9.182e-7
-0.415, 9.188e-7
-0.414, 9.191e-7
-0.413, 9.166e-7
-0.412, 9.235e-7
-0.411, 9.265e-7
-0.410, 8.952e-7
-0.409, 9.196e-7
-0.408, 9.235e-7
-0.407, 9.235e-7
-0.406, 9.298e-7
-0.405, 9.223e-7
-0.404, 9.324e-7
-0.403, 9.306e-7
-0.402, 9.299e-7
-0.401, 9.338e-7
-0.400, 9.325e-7
-0.399, 9.367e-7
-0.398, 9.347e-7
-0.397, 9.280e-7
-0.396, 9.399e-7
-0.395, 9.401e-7
-0.394, 9.382e-7
-0.393, 9.416e-7
-0.392, 9.450e-7
-0.391, 9.416e-7
-0.390, 9.454e-7
-0.389, 9.424e-7
-0.388, 9.492e-7
-0.387, 9.506e-7
-0.386, 9.474e-7
-0.385, 9.511e-7
-0.384, 9.623e-7
-0.383, 9.558e-7
-0.382, 9.558e-7
-0.381, 9.540e-7
-0.380, 9.569e-7
-0.379, 9.580e-7
-0.378, 9.576e-7
-0.377, 9.623e-7
-0.376, 9.580e-7
-0.375, 9.640e-7
-0.374, 9.626e-7
-0.373, 9.627e-7
-0.372, 9.665e-7
-0.371, 9.614e-7
-0.370, 9.679e-7
-0.369, 9.692e-7
-0.368, 9.678e-7
-0.367, 9.694e-7
-0.366, 9.712e-7
-0.365, 9.702e-7
-0.364, 9.778e-7
-0.363, 9.760e-7
-0.362, 9.738e-7
-0.361, 9.769e-7
-0.360, 9.794e-7
-0.359, 9.755e-7
-0.358, 9.745e-7
-0.357, 9.765e-7
-0.356, 9.820e-7
-0.355, 9.864e-7
-0.354, 9.856e-7
-0.353, 9.858e-7
-0.352, 9.823e-7
-0.351, 9.863e-7
-0.350, 9.869e-7
-0.349, 9.877e-7
-0.348, 9.937e-7
-0.347, 9.954e-7
-0.346, 9.871e-7
-0.345, 9.894e-7
-0.344, 9.926e-7
-0.343, 9.942e-7
-0.342, 9.992e-7
-0.341, 9.927e-7
-0.340, 9.992e-7
-0.339, 1.000e-6
-0.338, 9.981e-7
-0.337, 1.001e-6
-0.336, 1.002e-6
-0.335, 1.006e-6
-0.334, 1.003e-6
-0.333, 1.013e-6
-0.332, 1.011e-6
-0.331, 1.010e-6
-0.330, 1.007e-6
-0.329, 1.011e-6
-0.328, 1.014e-6
-0.327, 1.012e-6
-0.326, 1.015e-6
-0.325, 1.011e-6
-0.324, 1.016e-6
-0.323, 1.017e-6
-0.322, 1.015e-6
-0.321, 1.019e-6
-0.320, 1.011e-6
-0.319, 1.020e-6
-0.318, 1.022e-6
-0.317, 1.021e-6
-0.316, 1.024e-6
-0.315, 1.025e-6
-0.314, 1.026e-6
-0.313, 1.022e-6
-0.312, 1.028e-6
-0.311, 1.029e-6
-0.310, 1.029e-6
-0.309, 1.028e-6
-0.308, 1.034e-6
-0.307, 1.039e-6
-0.306, 1.036e-6
-0.305, 1.034e-6
-0.304, 1.034e-6
-0.303, 1.036e-6
-0.302, 1.040e-6
-0.301, 1.037e-6
-0.300, 1.043e-6
-0.299, 1.038e-6
-0.298, 1.041e-6
-0.297, 1.042e-6
-0.296, 1.044e-6
-0.295, 1.038e-6
-0.294, 1.044e-6
-0.293, 1.041e-6
-0.292, 1.051e-6
-0.291, 1.049e-6
-0.290, 1.046e-6
-0.289, 1.050e-6
-0.288, 1.051e-6
-0.287, 1.051e-6
-0.286, 1.055e-6
-0.285, 1.051e-6
-0.284, 1.058e-6
-0.283, 1.055e-6
-0.282, 1.062e-6
-0.281, 1.060e-6
-0.280, 1.058e-6
-0.279, 1.061e-6
-0.278, 1.063e-6
-0.277, 1.061e-6
-0.276, 1.065e-6
-0.275, 1.063e-6
-0.274, 1.067e-6
-0.273, 1.065e-6
-0.272, 1.067e-6
-0.271, 1.071e-6
-0.270, 1.068e-6
-0.269, 1.062e-6
-0.268, 1.070e-6
-0.267, 1.069e-6
-0.266, 1.070e-6
-0.265, 1.075e-6
-0.264, 1.072e-6
-0.263, 1.075e-6
-0.262, 1.077e-6
-0.261, 1.077e-6
-0.260, 1.077e-6
-0.259, 1.082e-6
-0.258, 1.079e-6
-0.257, 1.083e-6
-0.256, 1.079e-6
-0.255, 1.082e-6
-0.254, 1.084e-6
-0.253, 1.079e-6
-0.252, 1.089e-6
-0.251, 1.087e-6
-0.250, 1.086e-6
-0.249, 1.088e-6
-0.248, 1.086e-6
-0.247, 1.093e-6
-0.246, 1.091e-6
-0.245, 1.092e-6
-0.244, 1.090e-6
-0.243, 1.089e-6
-0.242, 1.094e-6
-0.241, 1.096e-6
-0.240, 1.094e-6
-0.239, 1.100e-6
-0.238, 1.097e-6
-0.237, 1.100e-6
-0.236, 1.100e-6
-0.235, 1.104e-6
-0.234, 1.101e-6
-0.233, 1.103e-6
-0.232, 1.103e-6
-0.231, 1.112e-6
-0.230, 1.108e-6
-0.229, 1.107e-6
-0.228, 1.108e-6
-0.227, 1.110e-6
-0.226, 1.109e-6
-0.225, 1.112e-6
-0.224, 1.112e-6
-0.223, 1.113e-6
-0.222, 1.114e-6
-0.221, 1.113e-6
-0.220, 1.113e-6
-0.219, 1.118e-6
-0.218, 1.107e-6
-0.217, 1.118e-6
-0.216, 1.118e-6
-0.215, 1.121e-6
-0.214, 1.118e-6
-0.213, 1.117e-6
-0.212, 1.125e-6
-0.211, 1.123e-6
-0.210, 1.123e-6
-0.209, 1.126e-6
-0.208, 1.125e-6
-0.207, 1.129e-6
-0.206, 1.124e-6
-0.205, 1.111e-6
-0.204, 1.126e-6
-0.203, 1.131e-6
-0.202, 1.126e-6
-0.201, 1.130e-6
-0.200, 1.132e-6
-0.199, 1.133e-6
-0.198, 1.134e-6
-0.197, 1.132e-6
-0.196, 1.136e-6
-0.195, 1.137e-6
-0.194, 1.137e-6
-0.193, 1.139e-6
-0.192, 1.130e-6
-0.191, 1.141e-6
-0.190, 1.139e-6
-0.189, 1.140e-6
-0.188, 1.145e-6
-0.187, 1.146e-6
-0.186, 1.141e-6
-0.185, 1.144e-6
-0.184, 1.148e-6
-0.183, 1.149e-6
-0.182, 1.149e-6
-0.181, 1.145e-6
-0.180, 1.151e-6
-0.179, 1.161e-6
-0.178, 1.151e-6
-0.177, 1.153e-6
-0.176, 1.155e-6
-0.175, 1.157e-6
-0.174, 1.156e-6
-0.173, 1.152e-6
-0.172, 1.163e-6
-0.171, 1.160e-6
-0.170, 1.160e-6
-0.169, 1.158e-6
-0.168, 1.162e-6
-0.167, 1.159e-6
-0.166, 1.161e-6
-0.165, 1.160e-6
-0.164, 1.163e-6
-0.163, 1.168e-6
-0.162, 1.165e-6
-0.161, 1.169e-6
-0.160, 1.166e-6
-0.159, 1.173e-6
-0.158, 1.166e-6
-0.157, 1.172e-6
-0.156, 1.172e-6
-0.155, 1.172e-6
-0.154, 1.168e-6
-0.153, 1.176e-6
-0.152, 1.170e-6
-0.151, 1.176e-6
-0.150, 1.175e-6
-0.149, 1.178e-6
-0.148, 1.179e-6
-0.147, 1.179e-6
-0.146, 1.179e-6
-0.145, 1.179e-6
-0.144, 1.185e-6
-0.143, 1.185e-6
-0.142, 1.183e-6
-0.141, 1.180e-6
-0.140, 1.184e-6
-0.139, 1.189e-6
-0.138, 1.181e-6
-0.137, 1.189e-6
-0.136, 1.188e-6
-0.135, 1.191e-6
-0.134, 1.193e-6
-0.133, 1.187e-6
-0.132, 1.194e-6
-0.131, 1.194e-6
-0.130, 1.193e-6
-0.129, 1.195e-6
-0.128, 1.200e-6
-0.127, 1.201e-6
-0.126, 1.199e-6
-0.125, 1.196e-6
-0.124, 1.201e-6
-0.123, 1.202e-6
-0.122, 1.200e-6
-0.121, 1.204e-6
-0.120, 1.201e-6
-0.119, 1.207e-6
-0.118, 1.205e-6
-0.117, 1.204e-6
-0.116, 1.204e-6
-0.115, 1.203e-6
-0.114, 1.209e-6
-0.113, 1.210e-6
-0.112, 1.206e-6
-0.111, 1.214e-6
-0.110, 1.209e-6
-0.109, 1.213e-6
-0.108, 1.213e-6
-0.107, 1.216e-6
-0.106, 1.215e-6
-0.105, 1.213e-6
-0.104, 1.220e-6
-0.103, 1.222e-6
-0.102, 1.223e-6
-0.101, 1.218e-6
-0.100, 1.221e-6
-0.099, 1.223e-6
-0.098, 1.221e-6
-0.097, 1.221e-6
-0.096, 1.226e-6
-0.095, 1.225e-6
-0.094, 1.226e-6
-0.093, 1.223e-6
-0.092, 1.229e-6
-0.091, 1.231e-6
-0.090, 1.221e-6
-0.089, 1.229e-6
-0.088, 1.229e-6
-0.087, 1.236e-6
-0.086, 1.232e-6
-0.085, 1.233e-6
-0.084, 1.235e-6
-0.083, 1.239e-6
-0.082, 1.236e-6
-0.081, 1.237e-6
-0.080, 1.237e-6
-0.079, 1.240e-6
-0.078, 1.243e-6
-0.077, 1.247e-6
-0.076, 1.239e-6
-0.075, 1.245e-6
-0.074, 1.249e-6
-0.073, 1.245e-6
-0.072, 1.247e-6
-0.071, 1.249e-6
-0.070, 1.247e-6
-0.069, 1.250e-6
-0.068, 1.251e-6
-0.067, 1.252e-6
-0.066, 1.251e-6
-0.065, 1.253e-6
-0.064, 1.247e-6
-0.063, 1.254e-6
-0.062, 1.257e-6
-0.061, 1.252e-6
-0.060, 1.257e-6
-0.059, 1.261e-6
-0.058, 1.256e-6
-0.057, 1.257e-6
-0.056, 1.259e-6
-0.055, 1.262e-6
-0.054, 1.264e-6
-0.053, 1.257e-6
-0.052, 1.264e-6
-0.051, 1.260e-6
-0.050, 1.263e-6
-0.049, 1.263e-6
-0.048, 1.262e-6
-0.047, 1.267e-6
-0.046, 1.266e-6
-0.045, 1.264e-6
-0.044, 1.268e-6
-0.043, 1.266e-6
-0.042, 1.264e-6
-0.041, 1.268e-6
-0.040, 1.266e-6
-0.039, 1.264e-6
-0.038, 1.266e-6
-0.037, 1.267e-6
-0.036, 1.271e-6
-0.035, 1.271e-6
-0.034, 1.269e-6
-0.033, 1.272e-6
-0.032, 1.273e-6
-0.031, 1.273e-6
-0.030, 1.271e-6
-0.029, 1.271e-6
-0.028, 1.278e-6
-0.027, 1.276e-6
-0.026, 1.282e-6
-0.025, 1.277e-6
-0.024, 1.275e-6
-0.023, 1.280e-6
-0.022, 1.279e-6
-0.021, 1.275e-6
-0.020, 1.279e-6
-0.019, 1.280e-6
-0.018, 1.277e-6
-0.017, 1.280e-6
-0.016, 1.279e-6
-0.015, 1.284e-6
-0.014, 1.282e-6
-0.013, 1.272e-6
-0.012, 1.287e-6
-0.011, 1.287e-6
-0.010, 1.283e-6
-0.009, 1.280e-6
-0.008, 1.285e-6
-0.007, 1.288e-6
-0.006, 1.284e-6
-0.005, 1.285e-6
-0.004, 1.287e-6
-0.003, 1.289e-6
-0.002, 1.288e-6
-0.001, 1.291e-6
-0.000, 1.267e-6
0.001, 1.288e-6
0.002, 1.290e-6
0.003, 1.289e-6
0.004, 1.291e-6
0.005, 1.297e-6
0.006, 1.291e-6
0.007, 1.292e-6
0.008, 1.294e-6
0.009, 1.297e-6
0.010, 1.297e-6
0.011, 1.294e-6
0.012, 1.299e-6
0.013, 1.291e-6
0.014, 1.300e-6
0.015, 1.297e-6
0.016, 1.300e-6
0.017, 1.305e-6
0.018, 1.301e-6
0.019, 1.298e-6
0.020, 1.304e-6
0.021, 1.308e-6
0.022, 1.302e-6
0.023, 1.303e-6
0.024, 1.308e-6
0.025, 1.312e-6
0.026, 1.308e-6
0.027, 1.306e-6
0.028, 1.311e-6
0.029, 1.313e-6
0.030, 1.306e-6
0.031, 1.308e-6
0.032, 1.312e-6
0.033, 1.312e-6
0.034, 1.311e-6
0.035, 1.312e-6
0.036, 1.314e-6
0.037, 1.316e-6
0.038, 1.305e-6
0.039, 1.315e-6
0.040, 1.315e-6
0.041, 1.318e-6
0.042, 1.315e-6
0.043, 1.315e-6
0.044, 1.319e-6
0.045, 1.319e-6
0.046, 1.320e-6
0.047, 1.318e-6
0.048, 1.318e-6
0.049, 1.325e-6
0.050, 1.324e-6
0.051, 1.319e-6
0.052, 1.325e-6
0.053, 1.323e-6
0.054, 1.321e-6
0.055, 1.327e-6
0.056, 1.326e-6
0.057, 1.325e-6
0.058, 1.327e-6
0.059, 1.324e-6
0.060, 1.334e-6
0.061, 1.330e-6
0.062, 1.326e-6
0.063, 1.330e-6
0.064, 1.322e-6
0.065, 1.330e-6
0.066, 1.331e-6
0.067, 1.328e-6
0.068, 1.336e-6
0.069, 1.335e-6
0.070, 1.329e-6
0.071, 1.334e-6
0.072, 1.333e-6
0.073, 1.337e-6
0.074, 1.337e-6
0.075, 1.333e-6
0.076, 1.341e-6
0.077, 1.346e-6
0.078, 1.337e-6
0.079, 1.344e-6
0.080, 1.339e-6
0.081, 1.344e-6
0.082, 1.340e-6
0.083, 1.342e-6
0.084, 1.346e-6
0.085, 1.346e-6
0.086, 1.341e-6
0.087, 1.342e-6
0.088, 1.344e-6
0.089, 1.341e-6
0.090, 1.344e-6
0.091, 1.345e-6
0.092, 1.346e-6
0.093, 1.346e-6
0.094, 1.345e-6
0.095, 1.350e-6
0.096, 1.348e-6
0.097, 1.351e-6
0.098, 1.353e-6
0.099, 1.349e-6
0.100, 1.353e-6
0.101, 1.354e-6
0.102, 1.359e-6
0.103, 1.355e-6
0.104, 1.354e-6
0.105, 1.356e-6
0.106, 1.357e-6
0.107, 1.354e-6
0.108, 1.359e-6
0.109, 1.358e-6
0.110, 1.355e-6
0.111, 1.361e-6
0.112, 1.357e-6
0.113, 1.359e-6
0.114, 1.358e-6
0.115, 1.353e-6
0.116, 1.361e-6
0.117, 1.362e-6
0.118, 1.362e-6
0.119, 1.362e-6
0.120, 1.366e-6
0.121, 1.363e-6
0.122, 1.366e-6
0.123, 1.363e-6
0.124, 1.368e-6
0.125, 1.366e-6
0.126, 1.365e-6
0.127, 1.368e-6
0.128, 1.376e-6
0.129, 1.372e-6
0.130, 1.371e-6
0.131, 1.368e-6
0.132, 1.374e-6
0.133, 1.374e-6
0.134, 1.368e-6
0.135, 1.376e-6
0.136, 1.375e-6
0.137, 1.373e-6
0.138, 1.376e-6
0.139, 1.371e-6
0.140, 1.376e-6
0.141, 1.372e-6
0.142, 1.372e-6
0.143, 1.378e-6
0.144, 1.378e-6
0.145, 1.380e-6
0.146, 1.377e-6
0.147, 1.377e-6
0.148, 1.378e-6
0.149, 1.381e-6
0.150, 1.380e-6
0.151, 1.383e-6
0.152, 1.382e-6
0.153, 1.383e-6
0.154, 1.382e-6
0.155, 1.382e-6
0.156, 1.385e-6
0.157, 1.388e-6
0.158, 1.384e-6
0.159, 1.387e-6
0.160, 1.384e-6
0.161, 1.390e-6
0.162, 1.389e-6
0.163, 1.387e-6
0.164, 1.390e-6
0.165, 1.394e-6
0.166, 1.382e-6
0.167, 1.391e-6
0.168, 1.389e-6
0.169, 1.393e-6
0.170, 1.393e-6
0.171, 1.392e-6
0.172, 1.393e-6
0.173, 1.397e-6
0.174, 1.393e-6
0.175, 1.396e-6
0.176, 1.397e-6
0.177, 1.397e-6
0.178, 1.396e-6
0.179, 1.408e-6
0.180, 1.400e-6
0.181, 1.404e-6
0.182, 1.399e-6
0.183, 1.403e-6
0.184, 1.400e-6
0.185, 1.406e-6
0.186, 1.406e-6
0.187, 1.400e-6
0.188, 1.406e-6
0.189, 1.411e-6
0.190, 1.405e-6
0.191, 1.406e-6
0.192, 1.400e-6
0.193, 1.409e-6
0.194, 1.405e-6
0.195, 1.404e-6
0.196, 1.411e-6
0.197, 1.412e-6
0.198, 1.408e-6
0.199, 1.411e-6
0.200, 1.413e-6
0.201, 1.414e-6
0.202, 1.410e-6
0.203, 1.413e-6
0.204, 1.411e-6
0.205, 1.403e-6
0.206, 1.412e-6
0.207, 1.415e-6
0.208, 1.415e-6
0.209, 1.419e-6
0.210, 1.419e-6
0.211, 1.413e-6
0.212, 1.420e-6
0.213, 1.421e-6
0.214, 1.418e-6
0.215, 1.422e-6
0.216, 1.421e-6
0.217, 1.419e-6
0.218, 1.423e-6
0.219, 1.420e-6
0.220, 1.426e-6
0.221, 1.426e-6
0.222, 1.422e-6
0.223, 1.427e-6
0.224, 1.425e-6
0.225, 1.430e-6
0.226, 1.429e-6
0.227, 1.425e-6
0.228, 1.433e-6
0.229, 1.432e-6
0.230, 1.440e-6
0.231, 1.434e-6
0.232, 1.433e-6
0.233, 1.436e-6
0.234, 1.438e-6
0.235, 1.435e-6
0.236, 1.435e-6
0.237, 1.438e-6
0.238, 1.439e-6
0.239, 1.437e-6
0.240, 1.440e-6
0.241, 1.442e-6
0.242, 1.441e-6
0.243, 1.432e-6
0.244, 1.444e-6
0.245, 1.445e-6
0.246, 1.440e-6
0.247, 1.446e-6
0.248, 1.446e-6
0.249, 1.447e-6
0.250, 1.447e-6
0.251, 1.448e-6
0.252, 1.448e-6
0.253, 1.451e-6
0.254, 1.449e-6
0.255, 1.453e-6
0.256, 1.448e-6
0.257, 1.452e-6
0.258, 1.455e-6
0.259, 1.450e-6
0.260, 1.456e-6
0.261, 1.459e-6
0.262, 1.456e-6
0.263, 1.453e-6
0.264, 1.458e-6
0.265, 1.463e-6
0.266, 1.461e-6
0.267, 1.461e-6
0.268, 1.462e-6
0.269, 1.460e-6
0.270, 1.463e-6
0.271, 1.463e-6
0.272, 1.466e-6
0.273, 1.469e-6
0.274, 1.469e-6
0.275, 1.465e-6
0.276, 1.473e-6
0.277, 1.471e-6
0.278, 1.471e-6
0.279, 1.474e-6
0.280, 1.474e-6
0.281, 1.484e-6
0.282, 1.479e-6
0.283, 1.474e-6
0.284, 1.481e-6
0.285, 1.484e-6
0.286, 1.477e-6
0.287, 1.480e-6
0.288, 1.483e-6
0.289, 1.486e-6
0.290, 1.484e-6
0.291, 1.483e-6
0.292, 1.490e-6
0.293, 1.488e-6
0.294, 1.481e-6
0.295, 1.489e-6
0.296, 1.491e-6
0.297, 1.493e-6
0.298, 1.491e-6
0.299, 1.494e-6
0.300, 1.497e-6
0.301, 1.499e-6
0.302, 1.493e-6
0.303, 1.500e-6
0.304, 1.498e-6
0.305, 1.503e-6
0.306, 1.505e-6
0.307, 1.511e-6
0.308, 1.509e-6
0.309, 1.510e-6
0.310, 1.507e-6
0.311, 1.513e-6
0.312, 1.511e-6
0.313, 1.510e-6
0.314, 1.518e-6
0.315, 1.515e-6
0.316, 1.518e-6
0.317, 1.525e-6
0.318, 1.522e-6
0.319, 1.525e-6
0.320, 1.514e-6
0.321, 1.528e-6
0.322, 1.526e-6
0.323, 1.527e-6
0.324, 1.532e-6
0.325, 1.531e-6
0.326, 1.535e-6
0.327, 1.532e-6
0.328, 1.537e-6
0.329, 1.538e-6
0.330, 1.544e-6
0.331, 1.540e-6
0.332, 1.549e-6
0.333, 1.554e-6
0.334, 1.548e-6
0.335, 1.552e-6
0.336, 1.554e-6
0.337, 1.553e-6
0.338, 1.557e-6
0.339, 1.557e-6
0.340, 1.559e-6
0.341, 1.567e-6
0.342, 1.562e-6
0.343, 1.569e-6
0.344, 1.569e-6
0.345, 1.568e-6
0.346, 1.571e-6
0.347, 1.572e-6
0.348, 1.579e-6
0.349, 1.585e-6
0.350, 1.581e-6
0.351, 1.584e-6
0.352, 1.589e-6
0.353, 1.591e-6
0.354, 1.594e-6
0.355, 1.593e-6
0.356, 1.602e-6
0.357, 1.601e-6
0.358, 1.598e-6
0.359, 1.604e-6
0.360, 1.610e-6
0.361, 1.609e-6
0.362, 1.615e-6
0.363, 1.614e-6
0.364, 1.621e-6
0.365, 1.622e-6
0.366, 1.623e-6
0.367, 1.628e-6
0.368, 1.631e-6
0.369, 1.635e-6
0.370, 1.639e-6
0.371, 1.628e-6
0.372, 1.642e-6
0.373, 1.649e-6
0.374, 1.646e-6
0.375, 1.654e-6
0.376, 1.657e-6
0.377, 1.660e-6
0.378, 1.663e-6
0.379, 1.665e-6
0.380, 1.671e-6
0.381, 1.678e-6
0.382, 1.677e-6
0.383, 1.681e-6
0.384, 1.692e-6
0.385, 1.691e-6
0.386, 1.694e-6
0.387, 1.693e-6
0.388, 1.705e-6
0.389, 1.708e-6
0.390, 1.707e-6
0.391, 1.711e-6
0.392, 1.714e-6
0.393, 1.724e-6
0.394, 1.726e-6
0.395, 1.727e-6
0.396, 1.731e-6
0.397, 1.730e-6
0.398, 1.739e-6
0.399, 1.741e-6
0.400, 1.746e-6
0.401, 1.754e-6
0.402, 1.760e-6
0.403, 1.760e-6
0.404, 1.766e-6
0.405, 1.770e-6
0.406, 1.772e-6
0.407, 1.780e-6
0.408, 1.784e-6
0.409, 1.763e-6
0.410, 1.784e-6
0.411, 1.789e-6
0.412, 1.800e-6
0.413, 1.805e-6
0.414, 1.806e-6
0.415, 1.812e-6
0.416, 1.817e-6
0.417, 1.825e-6
0.418, 1.828e-6
0.419, 1.830e-6
0.420, 1.837e-6
0.421, 1.845e-6
0.422, 1.840e-6
0.423, 1.852e-6
0.424, 1.856e-6
0.425, 1.862e-6
0.426, 1.869e-6
0.427, 1.872e-6
0.428, 1.875e-6
0.429, 1.884e-6
0.430, 1.886e-6
0.431, 1.894e-6
0.432, 1.897e-6
0.433, 1.904e-6
0.434, 1.907e-6
0.435, 1.918e-6
0.436, 1.919e-6
0.437, 1.925e-6
0.438, 1.928e-6
0.439, 1.935e-6
0.440, 1.942e-6
0.441, 1.945e-6
0.442, 1.950e-6
0.443, 1.952e-6
0.444, 1.959e-6
0.445, 1.966e-6
0.446, 1.968e-6
0.447, 1.974e-6
0.448, 1.975e-6
0.449, 1.984e-6
0.450, 1.991e-6
0.451, 1.990e-6
0.452, 1.999e-6
0.453, 2.002e-6
0.454, 2.005e-6
0.455, 2.011e-6
0.456, 2.019e-6
0.457, 2.023e-6
0.458, 2.032e-6
0.459, 2.028e-6
0.460, 2.037e-6
0.461, 2.041e-6
0.462, 2.042e-6
0.463, 2.051e-6
0.464, 2.053e-6
0.465, 2.063e-6
0.466, 2.063e-6
0.467, 2.061e-6
0.468, 2.073e-6
0.469, 2.080e-6
0.470, 2.078e-6
0.471, 2.084e-6
0.472, 2.091e-6
0.473, 2.087e-6
0.474, 2.095e-6
0.475, 2.096e-6
0.476, 2.105e-6
0.477, 2.110e-6
0.478, 2.115e-6
0.479, 2.112e-6
0.480, 2.118e-6
0.481, 2.124e-6
0.482, 2.132e-6
0.483, 2.130e-6
0.484, 2.137e-6
0.485, 2.134e-6
0.486, 2.153e-6
0.487, 2.144e-6
0.488, 2.151e-6
0.489, 2.158e-6
0.490, 2.155e-6
0.491, 2.157e-6
0.492, 2.161e-6
0.493, 2.172e-6
0.494, 2.169e-6
0.495, 2.173e-6
0.496, 2.177e-6
0.497, 2.176e-6
0.498, 2.184e-6
0.499, 2.173e-6
0.500, 2.182e-6
0.501, 2.189e-6
0.502, 2.192e-6
0.503, 2.195e-6
0.504, 2.200e-6
0.505, 2.201e-6
0.506, 2.206e-6
0.507, 2.199e-6
0.508, 2.212e-6
0.509, 2.212e-6
0.510, 2.212e-6
0.511, 2.217e-6
0.512, 2.229e-6
0.513, 2.219e-6
0.514, 2.222e-6
0.515, 2.226e-6
0.516, 2.228e-6
0.517, 2.231e-6
0.518, 2.231e-6
0.519, 2.235e-6
0.520, 2.239e-6
0.521, 2.241e-6
0.522, 2.243e-6
0.523, 2.241e-6
0.524, 2.244e-6
0.525, 2.242e-6
0.526, 2.245e-6
0.527, 2.251e-6
0.528, 2.250e-6
0.529, 2.256e-6
0.530, 2.257e-6
0.531, 2.253e-6
0.532, 2.261e-6
0.533, 2.265e-6
0.534, 2.260e-6
0.535, 2.266e-6
0.536, 2.268e-6
0.537, 2.279e-6
0.538, 2.274e-6
0.539, 2.270e-6
0.540, 2.278e-6
0.541, 2.278e-6
0.542, 2.274e-6
0.543, 2.280e-6
0.544, 2.278e-6
0.545, 2.287e-6
0.546, 2.284e-6
0.547, 2.283e-6
0.548, 2.287e-6
0.549, 2.293e-6
0.550, 2.278e-6
0.551, 2.290e-6
0.552, 2.290e-6
0.553, 2.294e-6
0.554, 2.296e-6
0.555, 2.293e-6
0.556, 2.297e-6
0.557, 2.301e-6
0.558, 2.299e-6
0.559, 2.302e-6
0.560, 2.306e-6
0.561, 2.309e-6
0.562, 2.309e-6
0.563, 2.301e-6
0.564, 2.307e-6
0.565, 2.313e-6
0.566, 2.311e-6
0.567, 2.311e-6
0.568, 2.314e-6
0.569, 2.314e-6
0.570, 2.314e-6
0.571, 2.318e-6
0.572, 2.319e-6
0.573, 2.320e-6
0.574, 2.322e-6
0.575, 2.321e-6
0.576, 2.312e-6
0.577, 2.326e-6
0.578, 2.323e-6
0.579, 2.327e-6
0.580, 2.333e-6
0.581, 2.329e-6
0.582, 2.329e-6
0.583, 2.334e-6
0.584, 2.329e-6
0.585, 2.332e-6
0.586, 2.337e-6
0.587, 2.333e-6
0.588, 2.340e-6
0.589, 2.349e-6
0.590, 2.339e-6
0.591, 2.340e-6
0.592, 2.342e-6
0.593, 2.343e-6
0.594, 2.350e-6
0.595, 2.339e-6
0.596, 2.348e-6
0.597, 2.348e-6
0.598, 2.344e-6
0.599, 2.350e-6
0.600, 2.351e-6
0.601, 2.345e-6
0.602, 2.349e-6
0.603, 2.349e-6
0.604, 2.355e-6
0.605, 2.352e-6
0.606, 2.350e-6
0.607, 2.353e-6
0.608, 2.351e-6
0.609, 2.360e-6
0.610, 2.358e-6
0.611, 2.355e-6
0.612, 2.358e-6
0.613, 2.361e-6
0.614, 2.334e-6
0.615, 2.352e-6
0.616, 2.359e-6
0.617, 2.357e-6
0.618, 2.364e-6
0.619, 2.355e-6
0.620, 2.364e-6
0.621, 2.362e-6
0.622, 2.362e-6
0.623, 2.361e-6
0.624, 2.362e-6
0.625, 2.369e-6
0.626, 2.366e-6
0.627, 2.356e-6
0.628, 2.370e-6
0.629, 2.367e-6
0.630, 2.366e-6
0.631, 2.368e-6
0.632, 2.363e-6
0.633, 2.371e-6
0.634, 2.370e-6
0.635, 2.367e-6
0.636, 2.371e-6
0.637, 2.375e-6
0.638, 2.369e-6
0.639, 2.371e-6
0.640, 2.383e-6
0.641, 2.377e-6
0.642, 2.376e-6
0.643, 2.373e-6
0.644, 2.374e-6
0.645, 2.379e-6
0.646, 2.375e-6
0.647, 2.375e-6
0.648, 2.374e-6
0.649, 2.378e-6
0.650, 2.380e-6
0.651, 2.376e-6
0.652, 2.375e-6
0.653, 2.374e-6
0.654, 2.375e-6
0.655, 2.377e-6
0.656, 2.376e-6
0.657, 2.378e-6
0.658, 2.382e-6
0.659, 2.375e-6
0.660, 2.382e-6
0.661, 2.379e-6
0.662, 2.376e-6
0.663, 2.384e-6
0.664, 2.381e-6
0.665, 2.379e-6
0.666, 2.378e-6
0.667, 2.381e-6
0.668, 2.384e-6
0.669, 2.386e-6
0.670, 2.378e-6
0.671, 2.384e-6
0.672, 2.382e-6
0.673, 2.385e-6
0.674, 2.382e-6
0.675, 2.383e-6
0.676, 2.388e-6
0.677, 2.383e-6
0.678, 2.376e-6
0.679, 2.385e-6
0.680, 2.386e-6
0.681, 2.387e-6
0.682, 2.385e-6
0.683, 2.384e-6
0.684, 2.390e-6
0.685, 2.391e-6
0.686, 2.389e-6
0.687, 2.388e-6
0.688, 2.388e-6
0.689, 2.391e-6
0.690, 2.392e-6
0.691, 2.397e-6
0.692, 2.389e-6
0.693, 2.399e-6
0.694, 2.394e-6
0.695, 2.388e-6
0.696, 2.392e-6
0.697, 2.392e-6
0.698, 2.400e-6
0.699, 2.390e-6
0.700, 2.399e-6
0.701, 2.400e-6
0.702, 2.389e-6
0.703, 2.398e-6
0.704, 2.385e-6
0.705, 2.399e-6
0.706, 2.398e-6
0.707, 2.391e-6
0.708, 2.401e-6
0.709, 2.401e-6
0.710, 2.401e-6
0.711, 2.400e-6
0.712, 2.401e-6
0.713, 2.404e-6
0.714, 2.402e-6
0.715, 2.402e-6
0.716, 2.409e-6
0.717, 2.409e-6
0.718, 2.405e-6
0.719, 2.406e-6
0.720, 2.408e-6
0.721, 2.414e-6
0.722, 2.406e-6
0.723, 2.408e-6
0.724, 2.409e-6
0.725, 2.412e-6
0.726, 2.411e-6
0.727, 2.412e-6
0.728, 2.415e-6
0.729, 2.411e-6
0.730, 2.410e-6
0.731, 2.415e-6
0.732, 2.418e-6
0.733, 2.419e-6
0.734, 2.417e-6
0.735, 2.418e-6
0.736, 2.416e-6
0.737, 2.422e-6
0.738, 2.425e-6
0.739, 2.423e-6
0.740, 2.420e-6
0.741, 2.428e-6
0.742, 2.438e-6
0.743, 2.435e-6
0.744, 2.427e-6
0.745, 2.433e-6
0.746, 2.435e-6
0.747, 2.424e-6
0.748, 2.438e-6
0.749, 2.433e-6
0.750, 2.435e-6
0.751, 2.441e-6
0.752, 2.435e-6
0.753, 2.446e-6
0.754, 2.441e-6
0.755, 2.427e-6
0.756, 2.442e-6
0.757, 2.443e-6
0.758, 2.440e-6
0.759, 2.444e-6
0.760, 2.445e-6
0.761, 2.451e-6
0.762, 2.447e-6
0.763, 2.450e-6
0.764, 2.453e-6
0.765, 2.456e-6
0.766, 2.452e-6
0.767, 2.457e-6
0.768, 2.448e-6
0.769, 2.464e-6
0.770, 2.461e-6
0.771, 2.456e-6
0.772, 2.461e-6
0.773, 2.471e-6
0.774, 2.462e-6
0.775, 2.467e-6
0.776, 2.472e-6
0.777, 2.466e-6
0.778, 2.471e-6
0.779, 2.472e-6
0.780, 2.477e-6
0.781, 2.466e-6
0.782, 2.476e-6
0.783, 2.481e-6
0.784, 2.482e-6
0.785, 2.484e-6
0.786, 2.480e-6
0.787, 2.482e-6
0.788, 2.491e-6
0.789, 2.491e-6
0.790, 2.487e-6
0.791, 2.497e-6
0.792, 2.491e-6
0.793, 2.514e-6
0.794, 2.496e-6
0.795, 2.499e-6
0.796, 2.502e-6
0.797, 2.510e-6
0.798, 2.500e-6
0.799, 2.506e-6
0.800, 2.508e-6
0.801, 2.515e-6
0.802, 2.516e-6
0.803, 2.508e-6
0.804, 2.523e-6
0.805, 2.524e-6
0.806, 2.505e-6
0.807, 2.519e-6
0.808, 2.525e-6
0.809, 2.527e-6
0.810, 2.531e-6
0.811, 2.527e-6
0.812, 2.535e-6
0.813, 2.537e-6
0.814, 2.535e-6
0.815, 2.537e-6
0.816, 2.541e-6
0.817, 2.548e-6
0.818, 2.546e-6
0.819, 2.504e-6
0.820, 2.539e-6
0.821, 2.554e-6
0.822, 2.548e-6
0.823, 2.551e-6
0.824, 2.555e-6
0.825, 2.558e-6
0.826, 2.561e-6
0.827, 2.563e-6
0.828, 2.569e-6
0.829, 2.568e-6
0.830, 2.571e-6
0.831, 2.571e-6
0.832, 2.561e-6
0.833, 2.578e-6
0.834, 2.579e-6
0.835, 2.577e-6
0.836, 2.583e-6
0.837, 2.588e-6
0.838, 2.588e-6
0.839, 2.591e-6
0.840, 2.593e-6
0.841, 2.597e-6
0.842, 2.598e-6
0.843, 2.596e-6
0.844, 2.605e-6
0.845, 2.619e-6
0.846, 2.609e-6
0.847, 2.610e-6
0.848, 2.612e-6
0.849, 2.616e-6
0.850, 2.618e-6
0.851, 2.616e-6
0.852, 2.619e-6
0.853, 2.625e-6
0.854, 2.626e-6
0.855, 2.629e-6
0.856, 2.629e-6
0.857, 2.625e-6
0.858, 2.631e-6
0.859, 2.634e-6
0.860, 2.641e-6
0.861, 2.642e-6
0.862, 2.644e-6
0.863, 2.644e-6
0.864, 2.643e-6
0.865, 2.656e-6
0.866, 2.646e-6
0.867, 2.650e-6
0.868, 2.658e-6
0.869, 2.670e-6
0.870, 2.655e-6
0.871, 2.661e-6
0.872, 2.656e-6
0.873, 2.676e-6
0.874, 2.667e-6
0.875, 2.668e-6
0.876, 2.676e-6
0.877, 2.680e-6
0.878, 2.672e-6
0.879, 2.680e-6
0.880, 2.684e-6
0.881, 2.689e-6
0.882, 2.685e-6
0.883, 2.674e-6
0.884, 2.688e-6
0.885, 2.698e-6
0.886, 2.691e-6
0.887, 2.696e-6
0.888, 2.696e-6
0.889, 2.702e-6
0.890, 2.702e-6
0.891, 2.698e-6
0.892, 2.707e-6
0.893, 2.712e-6
0.894, 2.708e-6
0.895, 2.713e-6
0.896, 2.727e-6
0.897, 2.725e-6
0.898, 2.720e-6
0.899, 2.721e-6
0.900, 2.727e-6
0.901, 2.731e-6
0.902, 2.727e-6
0.903, 2.733e-6
0.904, 2.730e-6
0.905, 2.738e-6
0.906, 2.741e-6
0.907, 2.739e-6
0.908, 2.738e-6
0.909, 2.735e-6
0.910, 2.744e-6
0.911, 2.747e-6
0.912, 2.747e-6
0.913, 2.758e-6
0.914, 2.749e-6
0.915, 2.749e-6
0.916, 2.763e-6
0.917, 2.760e-6
0.918, 2.766e-6
0.919, 2.760e-6
0.920, 2.766e-6
0.921, 2.782e-6
0.922, 2.776e-6
0.923, 2.774e-6
0.924, 2.784e-6
0.925, 2.777e-6
0.926, 2.789e-6
0.927, 2.782e-6
0.928, 2.779e-6
0.929, 2.790e-6
0.930, 2.795e-6
0.931, 2.791e-6
0.932, 2.799e-6
0.933, 2.800e-6
0.934, 2.786e-6
0.935, 2.801e-6
0.936, 2.807e-6
0.937, 2.808e-6
0.938, 2.812e-6
0.939, 2.807e-6
0.940, 2.824e-6
0.941, 2.822e-6
0.942, 2.819e-6
0.943, 2.825e-6
0.944, 2.823e-6
0.945, 2.831e-6
0.946, 2.828e-6
0.947, 2.844e-6
0.948, 2.847e-6
0.949, 2.844e-6
0.950, 2.839e-6
0.951, 2.845e-6
0.952, 2.848e-6
0.953, 2.850e-6
0.954, 2.856e-6
0.955, 2.853e-6
0.956, 2.862e-6
0.957, 2.863e-6
0.958, 2.862e-6
0.959, 2.865e-6
0.960, 2.856e-6
0.961, 2.870e-6
0.962, 2.877e-6
0.963, 2.873e-6
0.964, 2.875e-6
0.965, 2.883e-6
0.966, 2.884e-6
0.967, 2.880e-6
0.968, 2.889e-6
0.969, 2.896e-6
0.970, 2.897e-6
0.971, 2.894e-6
0.972, 2.906e-6
0.973, 2.904e-6
0.974, 2.905e-6
0.975, 2.912e-6
0.976, 2.908e-6
0.977, 2.918e-6
0.978, 2.924e-6
0.979, 2.914e-6
0.980, 2.927e-6
0.981, 2.929e-6
0.982, 2.928e-6
0.983, 2.930e-6
0.984, 2.940e-6
0.985, 2.927e-6
0.986, 2.938e-6
0.987, 2.937e-6
0.988, 2.950e-6
0.989, 2.954e-6
0.990, 2.953e-6
0.991, 2.958e-6
0.992, 2.957e-6
0.993, 2.967e-6
0.994, 2.963e-6
0.995, 2.971e-6
0.996, 2.972e-6
0.997, 2.974e-6
0.998, 2.995e-6
0.999, 2.989e-6
1.000, 2.341e-6
0.999, 2.000e-6
0.998, 1.910e-6
0.997, 1.831e-6
0.996, 1.747e-6
0.995, 1.696e-6
0.994, 1.647e-6
0.993, 1.597e-6
0.992, 1.550e-6
0.991, 1.513e-6
0.990, 1.484e-6
0.989, 1.441e-6
0.988, 1.401e-6
0.987, 1.378e-6
0.986, 1.355e-6
0.985, 1.314e-6
0.984, 1.287e-6
0.983, 1.266e-6
0.982, 1.229e-6
0.981, 1.215e-6
0.980, 1.180e-6
0.979, 1.167e-6
0.978, 1.144e-6
0.977, 1.115e-6
0.976, 1.096e-6
0.975, 1.078e-6
0.974, 1.053e-6
0.973, 1.047e-6
0.972, 1.017e-6
0.971, 9.949e-7
0.970, 9.854e-7
0.969, 9.654e-7
0.968, 9.370e-7
0.967, 9.343e-7
0.966, 9.169e-7
0.965, 8.967e-7
0.964, 8.826e-7
0.963, 8.649e-7
0.962, 8.529e-7
0.961, 8.369e-7
0.960, 8.289e-7
0.959, 8.089e-7
0.958, 7.910e-7
0.957, 7.849e-7
0.956, 7.587e-7
0.955, 7.497e-7
0.954, 7.444e-7
0.953, 7.269e-7
0.952, 7.103e-7
0.951, 6.945e-7
0.950, 6.924e-7
0.949, 6.708e-7
0.948, 6.608e-7
0.947, 6.447e-7
0.946, 6.432e-7
0.945, 6.248e-7
0.944, 6.125e-7
0.943, 6.028e-7
0.942, 5.973e-7
0.941, 5.885e-7
0.940, 5.688e-7
0.939, 5.646e-7
0.938, 5.561e-7
0.937, 5.454e-7
0.936, 5.315e-7
0.935, 5.361e-7
0.934, 5.178e-7
0.933, 5.032e-7
0.932, 4.969e-7
0.931, 4.849e-7
0.930, 4.787e-7
0.929, 4.640e-7
0.928, 4.602e-7
0.927, 4.575e-7
0.926, 4.406e-7
0.925, 4.376e-7
0.924, 4.154e-7
0.923, 4.108e-7
0.922, 4.015e-7
0.921, 3.965e-7
0.920, 3.886e-7
0.919, 3.806e-7
0.918, 3.758e-7
0.917, 3.683e-7
0.916, 3.565e-7
0.915, 3.499e-7
0.914, 3.448e-7
0.913, 3.285e-7
0.912, 3.247e-7
0.911, 3.233e-7
0.910, 3.143e-7
0.909, 3.196e-7
0.908, 2.968e-7
0.907, 2.922e-7
0.906, 2.908e-7
0.905, 2.763e-7
0.904, 2.697e-7
0.903, 2.615e-7
0.902, 2.596e-7
0.901, 2.483e-7
0.900, 2.433e-7
0.899, 2.319e-7
0.898, 2.363e-7
0.897, 2.200e-7
0.896, 1.979e-7
0.895, 2.049e-7
0.894, 2.035e-7
0.893, 1.989e-7
0.892, 1.836e-7
0.891, 1.778e-7
0.890, 1.834e-7
0.889, 1.727e-7
0.888, 1.609e-7
0.887, 1.612e-7
0.886, 1.513e-7
0.885, 1.503e-7
0.884, 1.446e-7
0.883, 1.363e-7
0.882, 1.324e-7
0.881, 1.244e-7
0.880, 1.187e-7
0.879, 1.098e-7
0.878, 1.083e-7
0.877, 1.024e-7
0.876, 9.221e-8
0.875, 8.767e-8
0.874, 8.496e-8
0.873, 8.037e-8
0.872, 7.301e-8
0.871, 6.796e-8
0.870, 6.399e-8
0.869, 6.015e-8
0.868, 4.518e-8
0.867, 4.424e-8
0.866, 4.283e-8
0.865, 3.638e-8
0.864, 2.976e-8
0.863, 2.450e-8
0.862, 1.888e-8
0.861, 1.757e-8
0.860, 6.054e-9
0.859, 2.799e-9
0.858, 1.191e-8
0.857, -5.202e-9
0.856, -1.114e-8
0.855, -1.611e-8
0.854, -2.533e-8
0.853, -1.805e-8
0.852, -3.212e-8
0.851, -4.284e-8
0.850, -3.958e-8
0.849, -4.899e-8
0.848, -4.631e-8
0.847, -5.375e-8
0.846, -5.988e-8
0.845, -7.410e-8
0.844, -7.870e-8
0.843, -7.207e-8
0.842, -7.857e-8
0.841, -8.852e-8
0.840, -8.754e-8
0.839, -9.232e-8
0.838, -9.624e-8
0.837, -1.000e-7
0.836, -1.117e-7
0.835, -1.138e-7
0.834, -1.168e-7
0.833, -1.148e-7
0.832, -1.157e-7
0.831, -1.271e-7
0.830, -1.288e-7
0.829, -1.306e-7
0.828, -1.421e-7
0.827, -1.477e-7
0.826, -1.439e-7
0.825, -1.533e-7
0.824, -1.635e-7
0.823, -1.588e-7
0.822, -1.638e-7
0.821, -1.689e-7
0.820, -1.481e-7
0.819, -1.620e-7
0.818, -1.743e-7
0.817, -1.808e-7
0.816, -1.877e-7
0.815, -1.957e-7
0.814, -1.919e-7
0.813, -1.969e-7
0.812, -2.040e-7
0.811, -2.103e-7
0.810, -2.095e-7
0.809, -2.145e-7
0.808, -2.202e-7
0.807, -2.099e-7
0.806, -2.264e-7
0.805, -2.252e-7
0.804, -2.352e-7
0.803, -2.381e-7
0.802, -2.397e-7
0.801, -2.468e-7
0.800, -2.504e-7
0.799, -2.494e-7
0.798, -2.551e-7
0.797, -2.573e-7
0.796, -2.614e-7
0.795, -2.676e-7
0.794, -2.825e-7
0.793, -2.742e-7
0.792, -2.766e-7
0.791, -2.835e-7
0.790, -2.843e-7
0.789, -2.833e-7
0.788, -2.937e-7
0.787, -2.939e-7
0.786, -2.927e-7
0.785, -2.997e-7
0.784, -3.046e-7
0.783, -3.034e-7
0.782, -3.100e-7
0.781, -3.009e-7
0.780, -3.169e-7
0.779, -3.190e-7
0.778, -3.183e-7
0.777, -3.263e-7
0.776, -3.305e-7
0.775, -3.294e-7
0.774, -3.320e-7
0.773, -3.355e-7
0.772, -3.416e-7
0.771, -3.455e-7
0.770, -3.410e-7
0.769, -3.523e-7
0.768, -3.489e-7
0.767, -3.568e-7
0.766, -3.553e-7
0.765, -3.584e-7
0.764, -3.701e-7
0.763, -3.699e-7
0.762, -3.613e-7
0.761, -3.713e-7
0.760, -3.782e-7
0.759, -3.793e-7
0.758, -3.811e-7
0.757, -3.827e-7
0.756, -3.847e-7
0.755, -3.851e-7
0.754, -3.886e-7
0.753, -3.919e-7
0.752, -3.989e-7
0.751, -3.998e-7
0.750, -4.020e-7
0.749, -4.029e-7
0.748, -4.123e-7
0.747, -4.114e-7
0.746, -4.110e-7
0.745, -4.175e-7
0.744, -4.206e-7
0.743, -4.320e-7
0.742, -4.257e-7
0.741, -4.265e-7
0.740, -4.314e-7
0.739, -4.377e-7
0.738, -4.297e-7
0.737, -4.360e-7
0.736, -4.382e-7
0.735, -4.405e-7
0.734, -4.461e-7
0.733, -4.428e-7
0.732, -4.544e-7
0.731, -4.558e-7
0.730, -4.425e-7
0.729, -4.584e-7
0.728, -4.591e-7
0.727, -4.594e-7
0.726, -4.620e-7
0.725, -4.659e-7
0.724, -4.704e-7
0.723, -4.758e-7
0.722, -4.679e-7
0.721, -4.765e-7
0.720, -4.793e-7
0.719, -4.855e-7
0.718, -4.812e-7
0.717, -4.938e-7
0.716, -4.918e-7
0.715, -4.955e-7
0.714, -4.902e-7
0.713, -4.943e-7
0.712, -5.002e-7
0.711, -5.003e-7
0.710, -5.027e-7
0.709, -5.060e-7
0.708, -5.106e-7
0.707, -5.095e-7
0.706, -5.079e-7
0.705, -5.160e-7
0.704, -5.064e-7
0.703, -5.193e-7
0.702, -5.227e-7
0.701, -5.181e-7
0.700, -5.246e-7
0.699, -5.310e-7
0.698, -5.250e-7
0.697, -5.337e-7
0.696, -5.367e-7
0.695, -5.368e-7
0.694, -5.382e-7
0.693, -5.383e-7
0.692, -5.549e-7
0.691, -5.508e-7
0.690, -5.477e-7
0.689, -5.514e-7
0.688, -5.550e-7
0.687, -5.535e-7
0.686, -5.570e-7
0.685, -5.530e-7
0.684, -5.664e-7
0.683, -5.622e-7
0.682, -5.613e-7
0.681, -5.693e-7
0.680, -5.719e-7
0.679, -5.640e-7
0.678, -5.699e-7
0.677, -5.713e-7
0.676, -5.823e-7
0.675, -5.824e-7
0.674, -5.826e-7
0.673, -5.805e-7
0.672, -5.861e-7
0.671, -5.870e-7
0.670, -5.911e-7
0.669, -5.927e-7
0.668, -5.952e-7
0.667, -5.976e-7
0.666, -5.954e-7
0.665, -5.997e-7
0.664, -6.059e-7
0.663, -6.047e-7
0.662, -6.066e-7
0.661, -6.048e-7
0.660, -6.134e-7
0.659, -6.169e-7
0.658, -6.116e-7
0.657, -6.191e-7
0.656, -6.206e-7
0.655, -6.200e-7
0.654, -6.227e-7
0.653, -6.126e-7
0.652, -6.294e-7
0.651, -6.315e-7
0.650, -6.283e-7
0.649, -6.360e-7
0.648, -6.365e-7
0.647, -6.388e-7
0.646, -6.396e-7
0.645, -6.409e-7
0.644, -6.450e-7
0.643, -6.450e-7
0.642, -6.455e-7
0.641, -6.491e-7
0.640, -6.668e-7
0.639, -6.570e-7
0.638, -6.538e-7
0.637, -6.589e-7
0.636, -6.657e-7
0.635, -6.646e-7
0.634, -6.625e-7
0.633, -6.664e-7
0.632, -6.723e-7
0.631, -6.716e-7
0.630, -6.725e-7
0.629, -6.767e-7
0.628, -6.731e-7
0.627, -6.752e-7
0.626, -6.775e-7
0.625, -6.861e-7
0.624, -6.857e-7
0.623, -6.880e-7
0.622, -6.884e-7
0.621, -6.863e-7
0.620, -6.975e-7
0.619, -6.944e-7
0.618, -6.951e-7
0.617, -7.015e-7
0.616, -7.012e-7
0.615, -6.840e-7
0.614, -7.001e-7
0.613, -7.032e-7
0.612, -7.098e-7
0.611, -7.130e-7
0.610, -7.086e-7
0.609, -7.144e-7
0.608, -7.201e-7
0.607, -7.152e-7
0.606, -7.248e-7
0.605, -7.233e-7
0.604, -7.264e-7
0.603, -7.283e-7
0.602, -7.188e-7
0.601, -7.287e-7
0.600, -7.349e-7
0.599, -7.353e-7
0.598, -7.393e-7
0.597, -7.373e-7
0.596, -7.410e-7
0.595, -7.444e-7
0.594, -7.461e-7
0.593, -7.482e-7
0.592, -7.519e-7
0.591, -7.546e-7
0.590, -7.538e-7
0.589, -7.668e-7
0.588, -7.627e-7
0.587, -7.626e-7
0.586, -7.621e-7
0.585, -7.676e-7
0.584, -7.704e-7
0.583, -7.695e-7
0.582, -7.724e-7
0.581, -7.751e-7
0.580, -7.813e-7
0.579, -7.792e-7
0.578, -7.783e-7
0.577, -7.871e-7
0.576, -7.758e-7
0.575, -7.865e-7
0.574, -7.893e-7
0.573, -7.880e-7
0.572, -7.946e-7
0.571, -7.969e-7
0.570, -7.930e-7
0.569, -8.037e-7
0.568, -8.039e-7
0.567, -8.055e-7
0.566, -8.059e-7
0.565, -8.086e-7
0.564, -8.166e-7
0.563, -8.108e-7
0.562, -8.132e-7
0.561, -8.193e-7
0.560, -8.223e-7
0.559, -8.237e-7
0.558, -8.235e-7
0.557, -8.249e-7
0.556, -8.317e-7
0.555, -8.316e-7
0.554, -8.313e-7
0.553, -8.369e-7
0.552, -8.396e-7
0.551, -8.317e-7
0.550, -8.406e-7
0.549, -8.441e-7
0.548, -8.475e-7
0.547, -8.497e-7
0.546, -8.495e-7
0.545, -8.553e-7
0.544, -8.591e-7
0.543, -8.563e-7
0.542, -8.582e-7
0.541, -8.599e-7
0.540, -8.681e-7
0.539, -8.685e-7
0.538, -8.766e-7
0.537, -8.730e-7
0.536, -8.753e-7
0.535, -8.779e-7
0.534, -8.769e-7
0.533, -8.793e-7
0.532, -8.846e-7
0.531, -8.867e-7
0.530, -8.853e-7
0.529, -8.914e-7
0.528, -8.921e-7
0.527, -8.948e-7
0.526, -8.956e-7
0.525, -8.869e-7
0.524, -9.016e-7
0.523, -9.021e-7
0.522, -8.994e-7
0.521, -9.099e-7
0.520, -9.080e-7
0.519, -9.117e-7
0.518, -9.132e-7
0.517, -9.139e-7
0.516, -9.172e-7
0.515, -9.192e-7
0.514, -9.218e-7
0.513, -9.221e-7
0.512, -9.363e-7
0.511, -9.282e-7
0.510, -9.290e-7
0.509, -9.303e-7
0.508, -9.350e-7
0.507, -9.363e-7
0.506, -9.361e-7
0.505, -9.398e-7
0.504, -9.421e-7
0.503, -9.447e-7
0.502, -9.425e-7
0.501, -9.451e-7
0.500, -9.434e-7
0.499, -9.448e-7
0.498, -9.507e-7
0.497, -9.533e-7
0.496, -9.550e-7
0.495, -9.543e-7
0.494, -9.626e-7
0.493, -9.551e-7
0.492, -9.619e-7
0.491, -9.639e-7
0.490, -9.610e-7
0.489, -9.653e-7
0.488, -9.705e-7
0.487, -9.776e-7
0.486, -9.766e-7
0.485, -9.715e-7
0.484, -9.740e-7
0.483, -9.786e-7
0.482, -9.723e-7
0.481, -9.810e-7
0.480, -9.800e-7
0.479, -9.793e-7
0.478, -9.811e-7
0.477, -9.811e-7
0.476, -9.871e-7
0.475, -9.841e-7
0.474, -9.773e-7
0.473, -9.838e-7
0.472, -9.893e-7
0.471, -9.880e-7
0.470, -9.927e-7
0.469, -9.897e-7
0.468, -9.924e-7
0.467, -9.942e-7
0.466, -9.941e-7
0.465, -9.929e-7
0.464, -9.970e-7
0.463, -9.984e-7
0.462, -9.975e-7
0.461, -9.932e-7
0.460, -1.005e-6
0.459, -9.996e-7
0.458, -9.988e-7
0.457, -1.002e-6
0.456, -1.005e-6
0.455, -1.001e-6
0.454, -1.005e-6
0.453, -1.004e-6
0.452, -1.006e-6
0.451, -1.009e-6
0.450, -1.009e-6
0.449, -1.004e-6
0.448, -9.983e-7
0.447, -1.006e-6
0.446, -1.009e-6
0.445, -1.007e-6
0.444, -1.011e-6
0.443, -1.013e-6
0.442, -1.008e-6
0.441, -1.013e-6
0.440, -1.011e-6
0.439, -1.013e-6
0.438, -1.014e-6
0.437, -1.013e-6
0.436, -1.020e-6
0.435, -1.024e-6
0.434, -1.016e-6
0.433, -1.017e-6
0.432, -1.015e-6
0.431, -1.016e-6
0.430, -1.016e-6
0.429, -1.016e-6
0.428, -1.020e-6
0.427, -1.019e-6
0.426, -1.017e-6
0.425, -1.022e-6
0.424, -1.022e-6
0.423, -1.011e-6
0.422, -1.018e-6
0.421, -1.018e-6
0.420, -1.020e-6
0.419, -1.020e-6
0.418, -1.017e-6
0.417, -1.023e-6
0.416, -1.025e-6
0.415, -1.019e-6
0.414, -1.020e-6
0.413, -1.018e-6
0.412, -1.024e-6
0.411, -1.023e-6
0.410, -9.921e-7
0.409, -1.015e-6
0.408, -1.019e-6
0.407, -1.022e-6
0.406, -1.016e-6
0.405, -1.019e-6
0.404, -1.026e-6
0.403, -1.022e-6
0.402, -1.018e-6
0.401, -1.027e-6
0.400, -1.023e-6
0.399, -1.024e-6
0.398, -1.022e-6
0.397, -1.013e-6
0.396, -1.029e-6
0.395, -1.021e-6
0.394, -1.023e-6
0.393, -1.022e-6
0.392, -1.025e-6
0.391, -1.020e-6
0.390, -1.023e-6
0.389, -1.021e-6
0.388, -1.027e-6
0.387, -1.023e-6
0.386, -1.023e-6
0.385, -1.025e-6
0.384, -1.037e-6
0.383, -1.027e-6
0.382, -1.024e-6
0.381, -1.025e-6
0.380, -1.026e-6
0.379, -1.030e-6
0.378, -1.027e-6
0.377, -1.026e-6
0.376, -1.025e-6
0.375, -1.022e-6
0.374, -1.024e-6
0.373, -1.025e-6
0.372, -1.022e-6
0.371, -1.025e-6
0.370, -1.023e-6
0.369, -1.026e-6
0.368, -1.030e-6
0.367, -1.026e-6
0.366, -1.025e-6
0.365, -1.023e-6
0.364, -1.027e-6
0.363, -1.028e-6
0.362, -1.025e-6
0.361, -1.027e-6
0.360, -1.028e-6
0.359, -1.026e-6
0.358, -1.026e-6
0.357, -1.025e-6
0.356, -1.030e-6
0.355, -1.029e-6
0.354, -1.025e-6
0.353, -1.027e-6
0.352, -1.027e-6
0.351, -1.029e-6
0.350, -1.027e-6
0.349, -1.027e-6
0.348, -1.032e-6
0.347, -1.028e-6
0.346, -1.018e-6
0.345, -1.030e-6
0.344, -1.031e-6
0.343, -1.023e-6
0.342, -1.029e-6
0.341, -1.029e-6
0.340, -1.029e-6
0.339, -1.029e-6
0.338, -1.025e-6
0.337, -1.031e-6
0.336, -1.032e-6
0.335, -1.027e-6
0.334, -1.030e-6
0.333, -1.038e-6
0.332, -1.033e-6
0.331, -1.030e-6
0.330, -1.026e-6
0.329, -1.033e-6
0.328, -1.034e-6
0.327, -1.031e-6
0.326, -1.029e-6
0.325, -1.031e-6
0.324, -1.034e-6
0.323, -1.033e-6
0.322, -1.031e-6
0.321, -1.030e-6
0.320, -1.026e-6
0.319, -1.033e-6
0.318, -1.032e-6
0.317, -1.032e-6
0.316, -1.035e-6
0.315, -1.038e-6
0.314, -1.030e-6
0.313, -1.033e-6
0.312, -1.034e-6
0.311, -1.033e-6
0.310, -1.033e-6
0.309, -1.036e-6
0.308, -1.040e-6
0.307, -1.038e-6
0.306, -1.034e-6
0.305, -1.038e-6
0.304, -1.036e-6
0.303, -1.035e-6
0.302, -1.035e-6
0.301, -1.035e-6
0.300, -1.041e-6
0.299, -1.039e-6
0.298, -1.032e-6
0.297, -1.037e-6
0.296, -1.040e-6
0.295, -1.033e-6
0.294, -1.035e-6
0.293, -1.035e-6
0.292, -1.040e-6
0.291, -1.035e-6
0.290, -1.038e-6
0.289, -1.042e-6
0.288, -1.039e-6
0.287, -1.044e-6
0.286, -1.038e-6
0.285, -1.039e-6
0.284, -1.043e-6
0.283, -1.042e-6
0.282, -1.046e-6
0.281, -1.046e-6
0.280, -1.044e-6
0.279, -1.041e-6
0.278, -1.042e-6
0.277, -1.044e-6
0.276, -1.049e-6
0.275, -1.042e-6
0.274, -1.041e-6
0.273, -1.048e-6
0.272, -1.047e-6
0.271, -1.045e-6
0.270, -1.044e-6
0.269, -1.040e-6
0.268, -1.048e-6
0.267, -1.047e-6
0.266, -1.043e-6
0.265, -1.048e-6
0.264, -1.050e-6
0.263, -1.047e-6
0.262, -1.048e-6
0.261, -1.047e-6
0.260, -1.049e-6
0.259, -1.048e-6
0.258, -1.049e-6
0.257, -1.050e-6
0.256, -1.048e-6
0.255, -1.050e-6
0.254, -1.049e-6
0.253, -1.049e-6
0.252, -1.055e-6
0.251, -1.053e-6
0.250, -1.047e-6
0.249, -1.053e-6
0.248, -1.057e-6
0.247, -1.054e-6
0.246, -1.051e-6
0.245, -1.050e-6
0.244, -1.051e-6
0.243, -1.054e-6
0.242, -1.052e-6
0.241, -1.056e-6
0.240, -1.056e-6
0.239, -1.060e-6
0.238, -1.055e-6
0.237, -1.053e-6
0.236, -1.058e-6
0.235, -1.057e-6
0.234, -1.058e-6
0.233, -1.058e-6
0.232, -1.062e-6
0.231, -1.067e-6
0.230, -1.060e-6
0.229, -1.061e-6
0.228, -1.062e-6
0.227, -1.060e-6
0.226, -1.063e-6
0.225, -1.061e-6
0.224, -1.063e-6
0.223, -1.063e-6
0.222, -1.060e-6
0.221, -1.062e-6
0.220, -1.064e-6
0.219, -1.067e-6
0.218, -1.058e-6
0.217, -1.063e-6
0.216, -1.065e-6
0.215, -1.066e-6
0.214, -1.067e-6
0.213, -1.064e-6
0.212, -1.069e-6
0.211, -1.065e-6
0.210, -1.067e-6
0.209, -1.069e-6
0.208, -1.070e-6
0.207, -1.068e-6
0.206, -1.071e-6
0.205, -1.054e-6
0.204, -1.069e-6
0.203, -1.067e-6
0.202, -1.069e-6
0.201, -1.069e-6
0.200, -1.073e-6
0.199, -1.073e-6
0.198, -1.071e-6
0.197, -1.073e-6
0.196, -1.072e-6
0.195, -1.076e-6
0.194, -1.072e-6
0.193, -1.077e-6
0.192, -1.070e-6
0.191, -1.074e-6
0.190, -1.073e-6
0.189, -1.075e-6
0.188, -1.078e-6
0.187, -1.078e-6
0.186, -1.076e-6
0.185, -1.078e-6
0.184, -1.080e-6
0.183, -1.078e-6
0.182, -1.079e-6
0.181, -1.080e-6
0.180, -1.088e-6
0.179, -1.084e-6
0.178, -1.081e-6
0.177, -1.084e-6
0.176, -1.086e-6
0.175, -1.085e-6
0.174, -1.083e-6
0.173, -1.082e-6
0.172, -1.085e-6
0.171, -1.086e-6
0.170, -1.082e-6
0.169, -1.086e-6
0.168, -1.086e-6
0.167, -1.082e-6
0.166, -1.084e-6
0.165, -1.085e-6
0.164, -1.089e-6
0.163, -1.086e-6
0.162, -1.087e-6
0.161, -1.089e-6
0.160, -1.090e-6
0.159, -1.089e-6
0.158, -1.089e-6
0.157, -1.089e-6
0.156, -1.094e-6
0.155, -1.094e-6
0.154, -1.088e-6
0.153, -1.089e-6
0.152, -1.097e-6
0.151, -1.092e-6
0.150, -1.092e-6
0.149, -1.090e-6
0.148, -1.097e-6
0.147, -1.094e-6
0.146, -1.095e-6
0.145, -1.095e-6
0.144, -1.099e-6
0.143, -1.092e-6
0.142, -1.096e-6
0.141, -1.087e-6
0.140, -1.098e-6
0.139, -1.102e-6
0.138, -1.092e-6
0.137, -1.100e-6
0.136, -1.102e-6
0.135, -1.100e-6
0.134, -1.096e-6
0.133, -1.098e-6
0.132, -1.103e-6
0.131, -1.102e-6
0.130, -1.097e-6
0.129, -1.103e-6
0.128, -1.114e-6
0.127, -1.103e-6
0.126, -1.103e-6
0.125, -1.102e-6
0.124, -1.105e-6
0.123, -1.105e-6
0.122, -1.105e-6
0.121, -1.105e-6
0.120, -1.108e-6
0.119, -1.104e-6
0.118, -1.107e-6
0.117, -1.108e-6
0.116, -1.104e-6
0.115, -1.109e-6
0.114, -1.105e-6
0.113, -1.109e-6
0.112, -1.108e-6
0.111, -1.111e-6
0.110, -1.109e-6
0.109, -1.108e-6
0.108, -1.113e-6
0.107, -1.112e-6
0.106, -1.105e-6
0.105, -1.115e-6
0.104, -1.115e-6
0.103, -1.115e-6
0.102, -1.116e-6
0.101, -1.113e-6
0.100, -1.115e-6
0.099, -1.118e-6
0.098, -1.112e-6
0.097, -1.119e-6
0.096, -1.119e-6
0.095, -1.114e-6
0.094, -1.118e-6
0.093, -1.113e-6
0.092, -1.120e-6
0.091, -1.122e-6
0.090, -1.112e-6
0.089, -1.118e-6
0.088, -1.119e-6
0.087, -1.118e-6
0.086, -1.118e-6
0.085, -1.119e-6
0.084, -1.125e-6
0.083, -1.123e-6
0.082, -1.119e-6
0.081, -1.120e-6
0.080, -1.125e-6
0.079, -1.126e-6
0.078, -1.122e-6
0.077, -1.129e-6
0.076, -1.129e-6
0.075, -1.125e-6
0.074, -1.129e-6
0.073, -1.125e-6
0.072, -1.129e-6
0.071, -1.127e-6
0.070, -1.125e-6
0.069, -1.124e-6
0.068, -1.133e-6
0.067, -1.128e-6
0.066, -1.130e-6
0.065, -1.130e-6
0.064, -1.122e-6
0.063, -1.127e-6
0.062, -1.131e-6
0.061, -1.130e-6
0.060, -1.133e-6
0.059, -1.133e-6
0.058, -1.132e-6
0.057, -1.133e-6
0.056, -1.134e-6
0.055, -1.133e-6
0.054, -1.136e-6
0.053, -1.131e-6
0.052, -1.136e-6
0.051, -1.134e-6
0.050, -1.135e-6
0.049, -1.136e-6
0.048, -1.137e-6
0.047, -1.139e-6
0.046, -1.137e-6
0.045, -1.134e-6
0.044, -1.141e-6
0.043, -1.139e-6
0.042, -1.139e-6
0.041, -1.140e-6
0.040, -1.142e-6
0.039, -1.135e-6
0.038, -1.139e-6
0.037, -1.142e-6
0.036, -1.142e-6
0.035, -1.143e-6
0.034, -1.144e-6
0.033, -1.144e-6
0.032, -1.146e-6
0.031, -1.145e-6
0.030, -1.146e-6
0.029, -1.144e-6
0.028, -1.147e-6
0.027, -1.149e-6
0.026, -1.154e-6
0.025, -1.149e-6
0.024, -1.153e-6
0.023, -1.149e-6
0.022, -1.149e-6
0.021, -1.149e-6
0.020, -1.151e-6
0.019, -1.154e-6
0.018, -1.152e-6
0.017, -1.157e-6
0.016, -1.154e-6
0.015, -1.152e-6
0.014, -1.152e-6
0.013, -1.145e-6
0.012, -1.155e-6
0.011, -1.156e-6
0.010, -1.151e-6
0.009, -1.159e-6
0.008, -1.153e-6
0.007, -1.161e-6
0.006, -1.159e-6
0.005, -1.156e-6
0.004, -1.160e-6
0.003, -1.158e-6
0.002, -1.158e-6
0.001, -1.164e-6
