May 7, 2026   14:42:19
Cyclic Voltammetry
File: mecn_ar_0.1mtbapf6_3mmfc_1mmfe-tpypy2me_-1.2_to_1v_100mvs.bin
Data Source:  Experiment
Instrument Model:  CHI660D
Header: 
Note: 

Init E (V) = 0
High E (V) = 1
Low E (V) = -1.2
Final E (V) = 0
Init P/N = N
Scan Rate (V/s) = 0.1
Segment = 3
Sample Interval (V) = 0.001
Quiet Time (sec) = 2
Sensitivity (A/V) = 1e-4
Comp R (ohm) = 131.5

Results:

Channel 1:
Segment 1:
Ep = -1.015V
ip = -3.809e-5A
Ah = -3.910e-5C

Segment 2:
Ep = -0.896V
ip = 3.082e-5A
Ah = 3.208e-5C

Ep = 0.495V
ip = 1.156e-4A
Ah = 7.210e-5C

Segment 3:
Ep = 0.435V
ip = -1.169e-4A
Ah = -7.596e-5C

Potential/V, Current/A

0.000, -8.090e-7
-0.001, -9.114e-7
-0.002, -9.508e-7
-0.003, -9.752e-7
-0.004, -1.009e-6
-0.005, -1.027e-6
-0.006, -1.044e-6
-0.007, -1.063e-6
-0.008, -1.078e-6
-0.009, -1.093e-6
-0.010, -1.108e-6
-0.011, -1.119e-6
-0.012, -1.131e-6
-0.013, -1.141e-6
-0.014, -1.151e-6
-0.015, -1.166e-6
-0.016, -1.177e-6
-0.017, -1.187e-6
-0.018, -1.197e-6
-0.019, -1.206e-6
-0.020, -1.215e-6
-0.021, -1.222e-6
-0.022, -1.233e-6
-0.023, -1.244e-6
-0.024, -1.256e-6
-0.025, -1.270e-6
-0.026, -1.274e-6
-0.027, -1.284e-6
-0.028, -1.294e-6
-0.029, -1.297e-6
-0.030, -1.307e-6
-0.031, -1.318e-6
-0.032, -1.319e-6
-0.033, -1.329e-6
-0.034, -1.336e-6
-0.035, -1.347e-6
-0.036, -1.355e-6
-0.037, -1.361e-6
-0.038, -1.358e-6
-0.039, -1.375e-6
-0.040, -1.383e-6
-0.041, -1.390e-6
-0.042, -1.398e-6
-0.043, -1.402e-6
-0.044, -1.416e-6
-0.045, -1.423e-6
-0.046, -1.428e-6
-0.047, -1.440e-6
-0.048, -1.443e-6
-0.049, -1.452e-6
-0.050, -1.459e-6
-0.051, -1.461e-6
-0.052, -1.475e-6
-0.053, -1.481e-6
-0.054, -1.490e-6
-0.055, -1.498e-6
-0.056, -1.504e-6
-0.057, -1.513e-6
-0.058, -1.520e-6
-0.059, -1.528e-6
-0.060, -1.542e-6
-0.061, -1.543e-6
-0.062, -1.551e-6
-0.063, -1.556e-6
-0.064, -1.560e-6
-0.065, -1.569e-6
-0.066, -1.578e-6
-0.067, -1.584e-6
-0.068, -1.595e-6
-0.069, -1.602e-6
-0.070, -1.605e-6
-0.071, -1.615e-6
-0.072, -1.626e-6
-0.073, -1.628e-6
-0.074, -1.637e-6
-0.075, -1.645e-6
-0.076, -1.660e-6
-0.077, -1.666e-6
-0.078, -1.667e-6
-0.079, -1.678e-6
-0.080, -1.684e-6
-0.081, -1.690e-6
-0.082, -1.700e-6
-0.083, -1.703e-6
-0.084, -1.714e-6
-0.085, -1.722e-6
-0.086, -1.725e-6
-0.087, -1.738e-6
-0.088, -1.743e-6
-0.089, -1.746e-6
-0.090, -1.758e-6
-0.091, -1.766e-6
-0.092, -1.777e-6
-0.093, -1.783e-6
-0.094, -1.788e-6
-0.095, -1.799e-6
-0.096, -1.804e-6
-0.097, -1.812e-6
-0.098, -1.817e-6
-0.099, -1.824e-6
-0.100, -1.835e-6
-0.101, -1.841e-6
-0.102, -1.854e-6
-0.103, -1.855e-6
-0.104, -1.865e-6
-0.105, -1.873e-6
-0.106, -1.878e-6
-0.107, -1.882e-6
-0.108, -1.895e-6
-0.109, -1.903e-6
-0.110, -1.906e-6
-0.111, -1.915e-6
-0.112, -1.925e-6
-0.113, -1.933e-6
-0.114, -1.937e-6
-0.115, -1.934e-6
-0.116, -1.949e-6
-0.117, -1.960e-6
-0.118, -1.961e-6
-0.119, -1.971e-6
-0.120, -1.979e-6
-0.121, -1.985e-6
-0.122, -1.993e-6
-0.123, -1.997e-6
-0.124, -2.009e-6
-0.125, -2.018e-6
-0.126, -2.021e-6
-0.127, -2.026e-6
-0.128, -2.046e-6
-0.129, -2.046e-6
-0.130, -2.051e-6
-0.131, -2.054e-6
-0.132, -2.068e-6
-0.133, -2.070e-6
-0.134, -2.076e-6
-0.135, -2.085e-6
-0.136, -2.092e-6
-0.137, -2.100e-6
-0.138, -2.100e-6
-0.139, -2.112e-6
-0.140, -2.114e-6
-0.141, -2.121e-6
-0.142, -2.131e-6
-0.143, -2.138e-6
-0.144, -2.148e-6
-0.145, -2.155e-6
-0.146, -2.157e-6
-0.147, -2.162e-6
-0.148, -2.175e-6
-0.149, -2.181e-6
-0.150, -2.186e-6
-0.151, -2.191e-6
-0.152, -2.201e-6
-0.153, -2.207e-6
-0.154, -2.214e-6
-0.155, -2.218e-6
-0.156, -2.227e-6
-0.157, -2.237e-6
-0.158, -2.242e-6
-0.159, -2.252e-6
-0.160, -2.255e-6
-0.161, -2.262e-6
-0.162, -2.272e-6
-0.163, -2.277e-6
-0.164, -2.285e-6
-0.165, -2.289e-6
-0.166, -2.289e-6
-0.167, -2.301e-6
-0.168, -2.307e-6
-0.169, -2.312e-6
-0.170, -2.318e-6
-0.171, -2.323e-6
-0.172, -2.331e-6
-0.173, -2.338e-6
-0.174, -2.341e-6
-0.175, -2.354e-6
-0.176, -2.357e-6
-0.177, -2.366e-6
-0.178, -2.369e-6
-0.179, -2.384e-6
-0.180, -2.387e-6
-0.181, -2.393e-6
-0.182, -2.393e-6
-0.183, -2.405e-6
-0.184, -2.408e-6
-0.185, -2.415e-6
-0.186, -2.418e-6
-0.187, -2.429e-6
-0.188, -2.433e-6
-0.189, -2.436e-6
-0.190, -2.441e-6
-0.191, -2.453e-6
-0.192, -2.446e-6
-0.193, -2.460e-6
-0.194, -2.467e-6
-0.195, -2.471e-6
-0.196, -2.481e-6
-0.197, -2.484e-6
-0.198, -2.489e-6
-0.199, -2.498e-6
-0.200, -2.505e-6
-0.201, -2.509e-6
-0.202, -2.515e-6
-0.203, -2.520e-6
-0.204, -2.521e-6
-0.205, -2.518e-6
-0.206, -2.535e-6
-0.207, -2.541e-6
-0.208, -2.545e-6
-0.209, -2.553e-6
-0.210, -2.559e-6
-0.211, -2.566e-6
-0.212, -2.571e-6
-0.213, -2.578e-6
-0.214, -2.579e-6
-0.215, -2.588e-6
-0.216, -2.595e-6
-0.217, -2.593e-6
-0.218, -2.607e-6
-0.219, -2.607e-6
-0.220, -2.620e-6
-0.221, -2.625e-6
-0.222, -2.627e-6
-0.223, -2.636e-6
-0.224, -2.643e-6
-0.225, -2.647e-6
-0.226, -2.650e-6
-0.227, -2.658e-6
-0.228, -2.670e-6
-0.229, -2.668e-6
-0.230, -2.685e-6
-0.231, -2.684e-6
-0.232, -2.690e-6
-0.233, -2.695e-6
-0.234, -2.702e-6
-0.235, -2.706e-6
-0.236, -2.710e-6
-0.237, -2.725e-6
-0.238, -2.724e-6
-0.239, -2.736e-6
-0.240, -2.736e-6
-0.241, -2.744e-6
-0.242, -2.753e-6
-0.243, -2.748e-6
-0.244, -2.763e-6
-0.245, -2.767e-6
-0.246, -2.766e-6
-0.247, -2.781e-6
-0.248, -2.784e-6
-0.249, -2.789e-6
-0.250, -2.793e-6
-0.251, -2.798e-6
-0.252, -2.808e-6
-0.253, -2.811e-6
-0.254, -2.818e-6
-0.255, -2.822e-6
-0.256, -2.826e-6
-0.257, -2.832e-6
-0.258, -2.840e-6
-0.259, -2.844e-6
-0.260, -2.856e-6
-0.261, -2.858e-6
-0.262, -2.862e-6
-0.263, -2.873e-6
-0.264, -2.879e-6
-0.265, -2.881e-6
-0.266, -2.887e-6
-0.267, -2.892e-6
-0.268, -2.899e-6
-0.269, -2.902e-6
-0.270, -2.908e-6
-0.271, -2.919e-6
-0.272, -2.924e-6
-0.273, -2.930e-6
-0.274, -2.935e-6
-0.275, -2.940e-6
-0.276, -2.944e-6
-0.277, -2.954e-6
-0.278, -2.954e-6
-0.279, -2.964e-6
-0.280, -2.972e-6
-0.281, -2.984e-6
-0.282, -2.984e-6
-0.283, -2.992e-6
-0.284, -2.995e-6
-0.285, -3.002e-6
-0.286, -3.001e-6
-0.287, -3.015e-6
-0.288, -3.015e-6
-0.289, -3.024e-6
-0.290, -3.026e-6
-0.291, -3.033e-6
-0.292, -3.042e-6
-0.293, -3.044e-6
-0.294, -3.039e-6
-0.295, -3.052e-6
-0.296, -3.061e-6
-0.297, -3.066e-6
-0.298, -3.066e-6
-0.299, -3.074e-6
-0.300, -3.080e-6
-0.301, -3.086e-6
-0.302, -3.089e-6
-0.303, -3.094e-6
-0.304, -3.105e-6
-0.305, -3.109e-6
-0.306, -3.110e-6
-0.307, -3.122e-6
-0.308, -3.125e-6
-0.309, -3.134e-6
-0.310, -3.133e-6
-0.311, -3.141e-6
-0.312, -3.143e-6
-0.313, -3.149e-6
-0.314, -3.148e-6
-0.315, -3.154e-6
-0.316, -3.163e-6
-0.317, -3.165e-6
-0.318, -3.169e-6
-0.319, -3.172e-6
-0.320, -3.166e-6
-0.321, -3.179e-6
-0.322, -3.187e-6
-0.323, -3.190e-6
-0.324, -3.195e-6
-0.325, -3.201e-6
-0.326, -3.203e-6
-0.327, -3.205e-6
-0.328, -3.215e-6
-0.329, -3.215e-6
-0.330, -3.223e-6
-0.331, -3.225e-6
-0.332, -3.237e-6
-0.333, -3.241e-6
-0.334, -3.239e-6
-0.335, -3.245e-6
-0.336, -3.252e-6
-0.337, -3.251e-6
-0.338, -3.256e-6
-0.339, -3.258e-6
-0.340, -3.261e-6
-0.341, -3.266e-6
-0.342, -3.267e-6
-0.343, -3.273e-6
-0.344, -3.280e-6
-0.345, -3.274e-6
-0.346, -3.278e-6
-0.347, -3.284e-6
-0.348, -3.287e-6
-0.349, -3.291e-6
-0.350, -3.294e-6
-0.351, -3.297e-6
-0.352, -3.304e-6
-0.353, -3.305e-6
-0.354, -3.310e-6
-0.355, -3.309e-6
-0.356, -3.319e-6
-0.357, -3.322e-6
-0.358, -3.318e-6
-0.359, -3.328e-6
-0.360, -3.332e-6
-0.361, -3.328e-6
-0.362, -3.337e-6
-0.363, -3.338e-6
-0.364, -3.344e-6
-0.365, -3.346e-6
-0.366, -3.348e-6
-0.367, -3.354e-6
-0.368, -3.357e-6
-0.369, -3.361e-6
-0.370, -3.366e-6
-0.371, -3.356e-6
-0.372, -3.371e-6
-0.373, -3.375e-6
-0.374, -3.368e-6
-0.375, -3.377e-6
-0.376, -3.381e-6
-0.377, -3.387e-6
-0.378, -3.385e-6
-0.379, -3.392e-6
-0.380, -3.393e-6
-0.381, -3.396e-6
-0.382, -3.398e-6
-0.383, -3.402e-6
-0.384, -3.416e-6
-0.385, -3.410e-6
-0.386, -3.413e-6
-0.387, -3.413e-6
-0.388, -3.419e-6
-0.389, -3.423e-6
-0.390, -3.423e-6
-0.391, -3.426e-6
-0.392, -3.431e-6
-0.393, -3.433e-6
-0.394, -3.440e-6
-0.395, -3.432e-6
-0.396, -3.438e-6
-0.397, -3.444e-6
-0.398, -3.441e-6
-0.399, -3.452e-6
-0.400, -3.454e-6
-0.401, -3.459e-6
-0.402, -3.458e-6
-0.403, -3.463e-6
-0.404, -3.464e-6
-0.405, -3.470e-6
-0.406, -3.468e-6
-0.407, -3.477e-6
-0.408, -3.478e-6
-0.409, -3.450e-6
-0.410, -3.470e-6
-0.411, -3.479e-6
-0.412, -3.486e-6
-0.413, -3.487e-6
-0.414, -3.487e-6
-0.415, -3.496e-6
-0.416, -3.497e-6
-0.417, -3.501e-6
-0.418, -3.501e-6
-0.419, -3.503e-6
-0.420, -3.511e-6
-0.421, -3.514e-6
-0.422, -3.506e-6
-0.423, -3.513e-6
-0.424, -3.520e-6
-0.425, -3.520e-6
-0.426, -3.522e-6
-0.427, -3.525e-6
-0.428, -3.529e-6
-0.429, -3.532e-6
-0.430, -3.527e-6
-0.431, -3.537e-6
-0.432, -3.540e-6
-0.433, -3.544e-6
-0.434, -3.542e-6
-0.435, -3.557e-6
-0.436, -3.555e-6
-0.437, -3.554e-6
-0.438, -3.554e-6
-0.439, -3.558e-6
-0.440, -3.562e-6
-0.441, -3.565e-6
-0.442, -3.566e-6
-0.443, -3.564e-6
-0.444, -3.575e-6
-0.445, -3.576e-6
-0.446, -3.578e-6
-0.447, -3.575e-6
-0.448, -3.575e-6
-0.449, -3.588e-6
-0.450, -3.583e-6
-0.451, -3.586e-6
-0.452, -3.595e-6
-0.453, -3.599e-6
-0.454, -3.595e-6
-0.455, -3.602e-6
-0.456, -3.602e-6
-0.457, -3.609e-6
-0.458, -3.604e-6
-0.459, -3.609e-6
-0.460, -3.612e-6
-0.461, -3.615e-6
-0.462, -3.617e-6
-0.463, -3.623e-6
-0.464, -3.622e-6
-0.465, -3.628e-6
-0.466, -3.628e-6
-0.467, -3.626e-6
-0.468, -3.633e-6
-0.469, -3.635e-6
-0.470, -3.632e-6
-0.471, -3.644e-6
-0.472, -3.641e-6
-0.473, -3.635e-6
-0.474, -3.648e-6
-0.475, -3.649e-6
-0.476, -3.653e-6
-0.477, -3.654e-6
-0.478, -3.658e-6
-0.479, -3.657e-6
-0.480, -3.659e-6
-0.481, -3.663e-6
-0.482, -3.670e-6
-0.483, -3.667e-6
-0.484, -3.671e-6
-0.485, -3.677e-6
-0.486, -3.684e-6
-0.487, -3.681e-6
-0.488, -3.689e-6
-0.489, -3.684e-6
-0.490, -3.687e-6
-0.491, -3.688e-6
-0.492, -3.695e-6
-0.493, -3.699e-6
-0.494, -3.696e-6
-0.495, -3.701e-6
-0.496, -3.702e-6
-0.497, -3.707e-6
-0.498, -3.705e-6
-0.499, -3.698e-6
-0.500, -3.715e-6
-0.501, -3.717e-6
-0.502, -3.716e-6
-0.503, -3.720e-6
-0.504, -3.725e-6
-0.505, -3.724e-6
-0.506, -3.726e-6
-0.507, -3.726e-6
-0.508, -3.733e-6
-0.509, -3.732e-6
-0.510, -3.731e-6
-0.511, -3.738e-6
-0.512, -3.752e-6
-0.513, -3.743e-6
-0.514, -3.744e-6
-0.515, -3.746e-6
-0.516, -3.751e-6
-0.517, -3.756e-6
-0.518, -3.749e-6
-0.519, -3.754e-6
-0.520, -3.755e-6
-0.521, -3.761e-6
-0.522, -3.762e-6
-0.523, -3.760e-6
-0.524, -3.762e-6
-0.525, -3.762e-6
-0.526, -3.762e-6
-0.527, -3.769e-6
-0.528, -3.771e-6
-0.529, -3.774e-6
-0.530, -3.777e-6
-0.531, -3.775e-6
-0.532, -3.779e-6
-0.533, -3.782e-6
-0.534, -3.780e-6
-0.535, -3.784e-6
-0.536, -3.789e-6
-0.537, -3.800e-6
-0.538, -3.797e-6
-0.539, -3.794e-6
-0.540, -3.797e-6
-0.541, -3.801e-6
-0.542, -3.798e-6
-0.543, -3.807e-6
-0.544, -3.805e-6
-0.545, -3.804e-6
-0.546, -3.810e-6
-0.547, -3.809e-6
-0.548, -3.818e-6
-0.549, -3.816e-6
-0.550, -3.812e-6
-0.551, -3.809e-6
-0.552, -3.816e-6
-0.553, -3.821e-6
-0.554, -3.826e-6
-0.555, -3.824e-6
-0.556, -3.830e-6
-0.557, -3.833e-6
-0.558, -3.831e-6
-0.559, -3.835e-6
-0.560, -3.837e-6
-0.561, -3.841e-6
-0.562, -3.838e-6
-0.563, -3.840e-6
-0.564, -3.850e-6
-0.565, -3.846e-6
-0.566, -3.845e-6
-0.567, -3.851e-6
-0.568, -3.853e-6
-0.569, -3.858e-6
-0.570, -3.852e-6
-0.571, -3.857e-6
-0.572, -3.862e-6
-0.573, -3.865e-6
-0.574, -3.862e-6
-0.575, -3.866e-6
-0.576, -3.859e-6
-0.577, -3.865e-6
-0.578, -3.869e-6
-0.579, -3.873e-6
-0.580, -3.878e-6
-0.581, -3.874e-6
-0.582, -3.872e-6
-0.583, -3.879e-6
-0.584, -3.885e-6
-0.585, -3.882e-6
-0.586, -3.882e-6
-0.587, -3.884e-6
-0.588, -3.900e-6
-0.589, -3.902e-6
-0.590, -3.890e-6
-0.591, -3.898e-6
-0.592, -3.897e-6
-0.593, -3.901e-6
-0.594, -3.899e-6
-0.595, -3.900e-6
-0.596, -3.907e-6
-0.597, -3.907e-6
-0.598, -3.908e-6
-0.599, -3.909e-6
-0.600, -3.912e-6
-0.601, -3.906e-6
-0.602, -3.911e-6
-0.603, -3.914e-6
-0.604, -3.919e-6
-0.605, -3.924e-6
-0.606, -3.923e-6
-0.607, -3.923e-6
-0.608, -3.926e-6
-0.609, -3.928e-6
-0.610, -3.930e-6
-0.611, -3.931e-6
-0.612, -3.940e-6
-0.613, -3.938e-6
-0.614, -3.911e-6
-0.615, -3.937e-6
-0.616, -3.939e-6
-0.617, -3.941e-6
-0.618, -3.948e-6
-0.619, -3.946e-6
-0.620, -3.947e-6
-0.621, -3.952e-6
-0.622, -3.955e-6
-0.623, -3.955e-6
-0.624, -3.964e-6
-0.625, -3.955e-6
-0.626, -3.963e-6
-0.627, -3.954e-6
-0.628, -3.969e-6
-0.629, -3.971e-6
-0.630, -3.973e-6
-0.631, -3.973e-6
-0.632, -3.975e-6
-0.633, -3.977e-6
-0.634, -3.979e-6
-0.635, -3.983e-6
-0.636, -3.989e-6
-0.637, -3.992e-6
-0.638, -3.987e-6
-0.639, -3.995e-6
-0.640, -4.010e-6
-0.641, -4.000e-6
-0.642, -3.999e-6
-0.643, -3.999e-6
-0.644, -4.010e-6
-0.645, -4.009e-6
-0.646, -4.006e-6
-0.647, -4.012e-6
-0.648, -4.012e-6
-0.649, -4.021e-6
-0.650, -4.017e-6
-0.651, -4.019e-6
-0.652, -4.021e-6
-0.653, -4.021e-6
-0.654, -4.026e-6
-0.655, -4.026e-6
-0.656, -4.032e-6
-0.657, -4.038e-6
-0.658, -4.036e-6
-0.659, -4.033e-6
-0.660, -4.039e-6
-0.661, -4.048e-6
-0.662, -4.044e-6
-0.663, -4.047e-6
-0.664, -4.055e-6
-0.665, -4.049e-6
-0.666, -4.056e-6
-0.667, -4.055e-6
-0.668, -4.060e-6
-0.669, -4.066e-6
-0.670, -4.061e-6
-0.671, -4.070e-6
-0.672, -4.070e-6
-0.673, -4.072e-6
-0.674, -4.077e-6
-0.675, -4.073e-6
-0.676, -4.086e-6
-0.677, -4.085e-6
-0.678, -4.075e-6
-0.679, -4.085e-6
-0.680, -4.093e-6
-0.681, -4.089e-6
-0.682, -4.099e-6
-0.683, -4.095e-6
-0.684, -4.103e-6
-0.685, -4.105e-6
-0.686, -4.108e-6
-0.687, -4.111e-6
-0.688, -4.118e-6
-0.689, -4.119e-6
-0.690, -4.118e-6
-0.691, -4.131e-6
-0.692, -4.132e-6
-0.693, -4.132e-6
-0.694, -4.132e-6
-0.695, -4.140e-6
-0.696, -4.144e-6
-0.697, -4.146e-6
-0.698, -4.149e-6
-0.699, -4.150e-6
-0.700, -4.159e-6
-0.701, -4.164e-6
-0.702, -4.162e-6
-0.703, -4.170e-6
-0.704, -4.160e-6
-0.705, -4.175e-6
-0.706, -4.181e-6
-0.707, -4.177e-6
-0.708, -4.192e-6
-0.709, -4.193e-6
-0.710, -4.199e-6
-0.711, -4.202e-6
-0.712, -4.210e-6
-0.713, -4.214e-6
-0.714, -4.215e-6
-0.715, -4.217e-6
-0.716, -4.231e-6
-0.717, -4.236e-6
-0.718, -4.232e-6
-0.719, -4.238e-6
-0.720, -4.244e-6
-0.721, -4.250e-6
-0.722, -4.251e-6
-0.723, -4.254e-6
-0.724, -4.263e-6
-0.725, -4.267e-6
-0.726, -4.268e-6
-0.727, -4.271e-6
-0.728, -4.286e-6
-0.729, -4.279e-6
-0.730, -4.286e-6
-0.731, -4.291e-6
-0.732, -4.306e-6
-0.733, -4.313e-6
-0.734, -4.312e-6
-0.735, -4.320e-6
-0.736, -4.323e-6
-0.737, -4.330e-6
-0.738, -4.336e-6
-0.739, -4.346e-6
-0.740, -4.356e-6
-0.741, -4.360e-6
-0.742, -4.374e-6
-0.743, -4.371e-6
-0.744, -4.381e-6
-0.745, -4.386e-6
-0.746, -4.392e-6
-0.747, -4.395e-6
-0.748, -4.405e-6
-0.749, -4.413e-6
-0.750, -4.419e-6
-0.751, -4.428e-6
-0.752, -4.438e-6
-0.753, -4.442e-6
-0.754, -4.454e-6
-0.755, -4.441e-6
-0.756, -4.465e-6
-0.757, -4.477e-6
-0.758, -4.482e-6
-0.759, -4.492e-6
-0.760, -4.500e-6
-0.761, -4.509e-6
-0.762, -4.520e-6
-0.763, -4.527e-6
-0.764, -4.539e-6
-0.765, -4.550e-6
-0.766, -4.555e-6
-0.767, -4.573e-6
-0.768, -4.580e-6
-0.769, -4.595e-6
-0.770, -4.604e-6
-0.771, -4.612e-6
-0.772, -4.633e-6
-0.773, -4.644e-6
-0.774, -4.654e-6
-0.775, -4.674e-6
-0.776, -4.690e-6
-0.777, -4.705e-6
-0.778, -4.716e-6
-0.779, -4.723e-6
-0.780, -4.740e-6
-0.781, -4.752e-6
-0.782, -4.774e-6
-0.783, -4.790e-6
-0.784, -4.813e-6
-0.785, -4.826e-6
-0.786, -4.848e-6
-0.787, -4.869e-6
-0.788, -4.898e-6
-0.789, -4.905e-6
-0.790, -4.928e-6
-0.791, -4.959e-6
-0.792, -4.982e-6
-0.793, -5.016e-6
-0.794, -5.036e-6
-0.795, -5.055e-6
-0.796, -5.091e-6
-0.797, -5.114e-6
-0.798, -5.140e-6
-0.799, -5.181e-6
-0.800, -5.201e-6
-0.801, -5.236e-6
-0.802, -5.273e-6
-0.803, -5.298e-6
-0.804, -5.342e-6
-0.805, -5.373e-6
-0.806, -5.394e-6
-0.807, -5.448e-6
-0.808, -5.489e-6
-0.809, -5.535e-6
-0.810, -5.577e-6
-0.811, -5.615e-6
-0.812, -5.673e-6
-0.813, -5.712e-6
-0.814, -5.769e-6
-0.815, -5.818e-6
-0.816, -5.874e-6
-0.817, -5.930e-6
-0.818, -5.981e-6
-0.819, -6.007e-6
-0.820, -6.089e-6
-0.821, -6.157e-6
-0.822, -6.219e-6
-0.823, -6.291e-6
-0.824, -6.366e-6
-0.825, -6.437e-6
-0.826, -6.512e-6
-0.827, -6.579e-6
-0.828, -6.671e-6
-0.829, -6.752e-6
-0.830, -6.812e-6
-0.831, -6.914e-6
-0.832, -6.974e-6
-0.833, -7.090e-6
-0.834, -7.175e-6
-0.835, -7.277e-6
-0.836, -7.384e-6
-0.837, -7.479e-6
-0.838, -7.578e-6
-0.839, -7.698e-6
-0.840, -7.805e-6
-0.841, -7.934e-6
-0.842, -8.039e-6
-0.843, -8.150e-6
-0.844, -8.301e-6
-0.845, -8.442e-6
-0.846, -8.541e-6
-0.847, -8.677e-6
-0.848, -8.821e-6
-0.849, -8.970e-6
-0.850, -9.101e-6
-0.851, -9.242e-6
-0.852, -9.398e-6
-0.853, -9.555e-6
-0.854, -9.713e-6
-0.855, -9.875e-6
-0.856, -1.005e-5
-0.857, -1.018e-5
-0.858, -1.036e-5
-0.859, -1.053e-5
-0.860, -1.074e-5
-0.861, -1.093e-5
-0.862, -1.111e-5
-0.863, -1.131e-5
-0.864, -1.153e-5
-0.865, -1.171e-5
-0.866, -1.194e-5
-0.867, -1.215e-5
-0.868, -1.237e-5
-0.869, -1.259e-5
-0.870, -1.279e-5
-0.871, -1.306e-5
-0.872, -1.327e-5
-0.873, -1.353e-5
-0.874, -1.377e-5
-0.875, -1.401e-5
-0.876, -1.429e-5
-0.877, -1.457e-5
-0.878, -1.479e-5
-0.879, -1.508e-5
-0.880, -1.535e-5
-0.881, -1.566e-5
-0.882, -1.593e-5
-0.883, -1.614e-5
-0.884, -1.647e-5
-0.885, -1.678e-5
-0.886, -1.707e-5
-0.887, -1.740e-5
-0.888, -1.768e-5
-0.889, -1.802e-5
-0.890, -1.830e-5
-0.891, -1.863e-5
-0.892, -1.897e-5
-0.893, -1.927e-5
-0.894, -1.960e-5
-0.895, -1.992e-5
-0.896, -2.035e-5
-0.897, -2.063e-5
-0.898, -2.094e-5
-0.899, -2.126e-5
-0.900, -2.160e-5
-0.901, -2.192e-5
-0.902, -2.223e-5
-0.903, -2.258e-5
-0.904, -2.291e-5
-0.905, -2.326e-5
-0.906, -2.358e-5
-0.907, -2.390e-5
-0.908, -2.421e-5
-0.909, -2.448e-5
-0.910, -2.484e-5
-0.911, -2.517e-5
-0.912, -2.550e-5
-0.913, -2.578e-5
-0.914, -2.612e-5
-0.915, -2.640e-5
-0.916, -2.672e-5
-0.917, -2.702e-5
-0.918, -2.732e-5
-0.919, -2.765e-5
-0.920, -2.789e-5
-0.921, -2.826e-5
-0.922, -2.854e-5
-0.923, -2.880e-5
-0.924, -2.906e-5
-0.925, -2.932e-5
-0.926, -2.956e-5
-0.927, -2.982e-5
-0.928, -3.010e-5
-0.929, -3.037e-5
-0.930, -3.059e-5
-0.931, -3.082e-5
-0.932, -3.106e-5
-0.933, -3.134e-5
-0.934, -3.146e-5
-0.935, -3.171e-5
-0.936, -3.199e-5
-0.937, -3.221e-5
-0.938, -3.247e-5
-0.939, -3.265e-5
-0.940, -3.289e-5
-0.941, -3.310e-5
-0.942, -3.332e-5
-0.943, -3.353e-5
-0.944, -3.374e-5
-0.945, -3.398e-5
-0.946, -3.417e-5
-0.947, -3.444e-5
-0.948, -3.464e-5
-0.949, -3.484e-5
-0.950, -3.503e-5
-0.951, -3.524e-5
-0.952, -3.545e-5
-0.953, -3.565e-5
-0.954, -3.585e-5
-0.955, -3.604e-5
-0.956, -3.629e-5
-0.957, -3.648e-5
-0.958, -3.668e-5
-0.959, -3.689e-5
-0.960, -3.697e-5
-0.961, -3.731e-5
-0.962, -3.747e-5
-0.963, -3.768e-5
-0.964, -3.794e-5
-0.965, -3.813e-5
-0.966, -3.836e-5
-0.967, -3.854e-5
-0.968, -3.881e-5
-0.969, -3.903e-5
-0.970, -3.922e-5
-0.971, -3.942e-5
-0.972, -3.965e-5
-0.973, -3.985e-5
-0.974, -4.004e-5
-0.975, -4.030e-5
-0.976, -4.048e-5
-0.977, -4.076e-5
-0.978, -4.095e-5
-0.979, -4.110e-5
-0.980, -4.138e-5
-0.981, -4.157e-5
-0.982, -4.178e-5
-0.983, -4.195e-5
-0.984, -4.212e-5
-0.985, -4.230e-5
-0.986, -4.250e-5
-0.987, -4.262e-5
-0.988, -4.290e-5
-0.989, -4.305e-5
-0.990, -4.319e-5
-0.991, -4.340e-5
-0.992, -4.353e-5
-0.993, -4.373e-5
-0.994, -4.382e-5
-0.995, -4.400e-5
-0.996, -4.416e-5
-0.997, -4.425e-5
-0.998, -4.447e-5
-0.999, -4.457e-5
-1.000, -4.463e-5
-1.001, -4.477e-5
-1.002, -4.484e-5
-1.003, -4.488e-5
-1.004, -4.497e-5
-1.005, -4.503e-5
-1.006, -4.509e-5
-1.007, -4.514e-5
-1.008, -4.517e-5
-1.009, -4.523e-5
-1.010, -4.524e-5
-1.011, -4.520e-5
-1.012, -4.523e-5
-1.013, -4.526e-5
-1.014, -4.525e-5
-1.015, -4.527e-5
-1.016, -4.523e-5
-1.017, -4.521e-5
-1.018, -4.521e-5
-1.019, -4.512e-5
-1.020, -4.512e-5
-1.021, -4.507e-5
-1.022, -4.497e-5
-1.023, -4.493e-5
-1.024, -4.467e-5
-1.025, -4.470e-5
-1.026, -4.466e-5
-1.027, -4.454e-5
-1.028, -4.449e-5
-1.029, -4.438e-5
-1.030, -4.428e-5
-1.031, -4.419e-5
-1.032, -4.407e-5
-1.033, -4.398e-5
-1.034, -4.385e-5
-1.035, -4.373e-5
-1.036, -4.360e-5
-1.037, -4.345e-5
-1.038, -4.331e-5
-1.039, -4.321e-5
-1.040, -4.304e-5
-1.041, -4.292e-5
-1.042, -4.278e-5
-1.043, -4.263e-5
-1.044, -4.250e-5
-1.045, -4.234e-5
-1.046, -4.221e-5
-1.047, -4.204e-5
-1.048, -4.192e-5
-1.049, -4.177e-5
-1.050, -4.161e-5
-1.051, -4.145e-5
-1.052, -4.130e-5
-1.053, -4.114e-5
-1.054, -4.098e-5
-1.055, -4.083e-5
-1.056, -4.067e-5
-1.057, -4.051e-5
-1.058, -4.036e-5
-1.059, -4.018e-5
-1.060, -4.005e-5
-1.061, -3.988e-5
-1.062, -3.970e-5
-1.063, -3.957e-5
-1.064, -3.939e-5
-1.065, -3.925e-5
-1.066, -3.911e-5
-1.067, -3.893e-5
-1.068, -3.880e-5
-1.069, -3.864e-5
-1.070, -3.848e-5
-1.071, -3.835e-5
-1.072, -3.819e-5
-1.073, -3.805e-5
-1.074, -3.791e-5
-1.075, -3.775e-5
-1.076, -3.762e-5
-1.077, -3.747e-5
-1.078, -3.733e-5
-1.079, -3.718e-5
-1.080, -3.705e-5
-1.081, -3.692e-5
-1.082, -3.677e-5
-1.083, -3.664e-5
-1.084, -3.651e-5
-1.085, -3.636e-5
-1.086, -3.625e-5
-1.087, -3.610e-5
-1.088, -3.597e-5
-1.089, -3.584e-5
-1.090, -3.571e-5
-1.091, -3.560e-5
-1.092, -3.547e-5
-1.093, -3.535e-5
-1.094, -3.522e-5
-1.095, -3.511e-5
-1.096, -3.499e-5
-1.097, -3.488e-5
-1.098, -3.474e-5
-1.099, -3.464e-5
-1.100, -3.453e-5
-1.101, -3.443e-5
-1.102, -3.429e-5
-1.103, -3.419e-5
-1.104, -3.407e-5
-1.105, -3.396e-5
-1.106, -3.386e-5
-1.107, -3.374e-5
-1.108, -3.364e-5
-1.109, -3.353e-5
-1.110, -3.343e-5
-1.111, -3.333e-5
-1.112, -3.322e-5
-1.113, -3.312e-5
-1.114, -3.302e-5
-1.115, -3.292e-5
-1.116, -3.283e-5
-1.117, -3.274e-5
-1.118, -3.264e-5
-1.119, -3.255e-5
-1.120, -3.245e-5
-1.121, -3.236e-5
-1.122, -3.225e-5
-1.123, -3.217e-5
-1.124, -3.208e-5
-1.125, -3.199e-5
-1.126, -3.191e-5
-1.127, -3.182e-5
-1.128, -3.174e-5
-1.129, -3.164e-5
-1.130, -3.156e-5
-1.131, -3.147e-5
-1.132, -3.140e-5
-1.133, -3.131e-5
-1.134, -3.122e-5
-1.135, -3.115e-5
-1.136, -3.106e-5
-1.137, -3.098e-5
-1.138, -3.091e-5
-1.139, -3.081e-5
-1.140, -3.075e-5
-1.141, -3.068e-5
-1.142, -3.060e-5
-1.143, -3.053e-5
-1.144, -3.045e-5
-1.145, -3.037e-5
-1.146, -3.031e-5
-1.147, -3.023e-5
-1.148, -3.016e-5
-1.149, -3.009e-5
-1.150, -3.002e-5
-1.151, -2.995e-5
-1.152, -2.990e-5
-1.153, -2.982e-5
-1.154, -2.974e-5
-1.155, -2.968e-5
-1.156, -2.962e-5
-1.157, -2.955e-5
-1.158, -2.948e-5
-1.159, -2.942e-5
-1.160, -2.935e-5
-1.161, -2.930e-5
-1.162, -2.923e-5
-1.163, -2.917e-5
-1.164, -2.910e-5
-1.165, -2.905e-5
-1.166, -2.897e-5
-1.167, -2.893e-5
-1.168, -2.887e-5
-1.169, -2.881e-5
-1.170, -2.875e-5
-1.171, -2.869e-5
-1.172, -2.864e-5
-1.173, -2.858e-5
-1.174, -2.852e-5
-1.175, -2.846e-5
-1.176, -2.841e-5
-1.177, -2.835e-5
-1.178, -2.829e-5
-1.179, -2.823e-5
-1.180, -2.819e-5
-1.181, -2.814e-5
-1.182, -2.808e-5
-1.183, -2.803e-5
-1.184, -2.798e-5
-1.185, -2.793e-5
-1.186, -2.787e-5
-1.187, -2.782e-5
-1.188, -2.778e-5
-1.189, -2.773e-5
-1.190, -2.766e-5
-1.191, -2.762e-5
-1.192, -2.757e-5
-1.193, -2.752e-5
-1.194, -2.747e-5
-1.195, -2.743e-5
-1.196, -2.739e-5
-1.197, -2.733e-5
-1.198, -2.728e-5
-1.199, -2.724e-5
-1.200, -2.671e-5
-1.199, -2.634e-5
-1.198, -2.618e-5
-1.197, -2.603e-5
-1.196, -2.590e-5
-1.195, -2.579e-5
-1.194, -2.568e-5
-1.193, -2.557e-5
-1.192, -2.548e-5
-1.191, -2.539e-5
-1.190, -2.530e-5
-1.189, -2.521e-5
-1.188, -2.512e-5
-1.187, -2.503e-5
-1.186, -2.495e-5
-1.185, -2.487e-5
-1.184, -2.479e-5
-1.183, -2.471e-5
-1.182, -2.464e-5
-1.181, -2.456e-5
-1.180, -2.449e-5
-1.179, -2.441e-5
-1.178, -2.435e-5
-1.177, -2.427e-5
-1.176, -2.420e-5
-1.175, -2.413e-5
-1.174, -2.406e-5
-1.173, -2.400e-5
-1.172, -2.393e-5
-1.171, -2.386e-5
-1.170, -2.380e-5
-1.169, -2.373e-5
-1.168, -2.367e-5
-1.167, -2.360e-5
-1.166, -2.353e-5
-1.165, -2.349e-5
-1.164, -2.341e-5
-1.163, -2.335e-5
-1.162, -2.329e-5
-1.161, -2.323e-5
-1.160, -2.317e-5
-1.159, -2.311e-5
-1.158, -2.304e-5
-1.157, -2.299e-5
-1.156, -2.293e-5
-1.155, -2.287e-5
-1.154, -2.281e-5
-1.153, -2.275e-5
-1.152, -2.268e-5
-1.151, -2.263e-5
-1.150, -2.257e-5
-1.149, -2.253e-5
-1.148, -2.245e-5
-1.147, -2.240e-5
-1.146, -2.235e-5
-1.145, -2.229e-5
-1.144, -2.224e-5
-1.143, -2.218e-5
-1.142, -2.212e-5
-1.141, -2.206e-5
-1.140, -2.201e-5
-1.139, -2.196e-5
-1.138, -2.189e-5
-1.137, -2.184e-5
-1.136, -2.178e-5
-1.135, -2.172e-5
-1.134, -2.167e-5
-1.133, -2.162e-5
-1.132, -2.155e-5
-1.131, -2.150e-5
-1.130, -2.145e-5
-1.129, -2.139e-5
-1.128, -2.134e-5
-1.127, -2.126e-5
-1.126, -2.121e-5
-1.125, -2.116e-5
-1.124, -2.109e-5
-1.123, -2.104e-5
-1.122, -2.099e-5
-1.121, -2.092e-5
-1.120, -2.086e-5
-1.119, -2.081e-5
-1.118, -2.073e-5
-1.117, -2.069e-5
-1.116, -2.062e-5
-1.115, -2.055e-5
-1.114, -2.051e-5
-1.113, -2.044e-5
-1.112, -2.037e-5
-1.111, -2.031e-5
-1.110, -2.024e-5
-1.109, -2.018e-5
-1.108, -2.011e-5
-1.107, -2.005e-5
-1.106, -1.998e-5
-1.105, -1.992e-5
-1.104, -1.985e-5
-1.103, -1.978e-5
-1.102, -1.971e-5
-1.101, -1.962e-5
-1.100, -1.956e-5
-1.099, -1.948e-5
-1.098, -1.940e-5
-1.097, -1.934e-5
-1.096, -1.926e-5
-1.095, -1.918e-5
-1.094, -1.910e-5
-1.093, -1.903e-5
-1.092, -1.894e-5
-1.091, -1.886e-5
-1.090, -1.878e-5
-1.089, -1.868e-5
-1.088, -1.862e-5
-1.087, -1.851e-5
-1.086, -1.843e-5
-1.085, -1.834e-5
-1.084, -1.824e-5
-1.083, -1.813e-5
-1.082, -1.805e-5
-1.081, -1.794e-5
-1.080, -1.785e-5
-1.079, -1.773e-5
-1.078, -1.763e-5
-1.077, -1.753e-5
-1.076, -1.741e-5
-1.075, -1.731e-5
-1.074, -1.719e-5
-1.073, -1.706e-5
-1.072, -1.695e-5
-1.071, -1.682e-5
-1.070, -1.670e-5
-1.069, -1.658e-5
-1.068, -1.644e-5
-1.067, -1.631e-5
-1.066, -1.616e-5
-1.065, -1.603e-5
-1.064, -1.589e-5
-1.063, -1.575e-5
-1.062, -1.561e-5
-1.061, -1.545e-5
-1.060, -1.527e-5
-1.059, -1.511e-5
-1.058, -1.496e-5
-1.057, -1.479e-5
-1.056, -1.462e-5
-1.055, -1.444e-5
-1.054, -1.423e-5
-1.053, -1.408e-5
-1.052, -1.388e-5
-1.051, -1.367e-5
-1.050, -1.344e-5
-1.049, -1.325e-5
-1.048, -1.306e-5
-1.047, -1.284e-5
-1.046, -1.264e-5
-1.045, -1.246e-5
-1.044, -1.217e-5
-1.043, -1.197e-5
-1.042, -1.173e-5
-1.041, -1.148e-5
-1.040, -1.126e-5
-1.039, -1.097e-5
-1.038, -1.073e-5
-1.037, -1.052e-5
-1.036, -1.022e-5
-1.035, -9.939e-6
-1.034, -9.675e-6
-1.033, -9.383e-6
-1.032, -9.103e-6
-1.031, -8.793e-6
-1.030, -8.522e-6
-1.029, -8.202e-6
-1.028, -7.899e-6
-1.027, -7.572e-6
-1.026, -7.247e-6
-1.025, -6.940e-6
-1.024, -6.790e-6
-1.023, -6.340e-6
-1.022, -5.991e-6
-1.021, -5.657e-6
-1.020, -5.317e-6
-1.019, -4.943e-6
-1.018, -4.616e-6
-1.017, -4.249e-6
-1.016, -3.894e-6
-1.015, -3.525e-6
-1.014, -3.139e-6
-1.013, -2.808e-6
-1.012, -2.429e-6
-1.011, -2.135e-6
-1.010, -1.731e-6
-1.009, -1.362e-6
-1.008, -9.852e-7
-1.007, -5.809e-7
-1.006, -1.959e-7
-1.005, 1.640e-7
-1.004, 5.357e-7
-1.003, 9.273e-7
-1.002, 1.288e-6
-1.001, 1.668e-6
-1.000, 1.987e-6
-0.999, 2.487e-6
-0.998, 2.847e-6
-0.997, 3.149e-6
-0.996, 3.546e-6
-0.995, 3.852e-6
-0.994, 4.215e-6
-0.993, 4.563e-6
-0.992, 4.872e-6
-0.991, 5.237e-6
-0.990, 5.586e-6
-0.989, 5.880e-6
-0.988, 6.249e-6
-0.987, 6.538e-6
-0.986, 6.795e-6
-0.985, 7.117e-6
-0.984, 7.375e-6
-0.983, 7.750e-6
-0.982, 8.059e-6
-0.981, 8.298e-6
-0.980, 8.597e-6
-0.979, 8.891e-6
-0.978, 9.151e-6
-0.977, 9.412e-6
-0.976, 9.652e-6
-0.975, 9.932e-6
-0.974, 1.019e-5
-0.973, 1.035e-5
-0.972, 1.063e-5
-0.971, 1.091e-5
-0.970, 1.109e-5
-0.969, 1.132e-5
-0.968, 1.153e-5
-0.967, 1.175e-5
-0.966, 1.199e-5
-0.965, 1.217e-5
-0.964, 1.240e-5
-0.963, 1.259e-5
-0.962, 1.278e-5
-0.961, 1.300e-5
-0.960, 1.306e-5
-0.959, 1.335e-5
-0.958, 1.351e-5
-0.957, 1.370e-5
-0.956, 1.395e-5
-0.955, 1.413e-5
-0.954, 1.428e-5
-0.953, 1.448e-5
-0.952, 1.461e-5
-0.951, 1.486e-5
-0.950, 1.504e-5
-0.949, 1.523e-5
-0.948, 1.540e-5
-0.947, 1.573e-5
-0.946, 1.580e-5
-0.945, 1.600e-5
-0.944, 1.618e-5
-0.943, 1.639e-5
-0.942, 1.655e-5
-0.941, 1.669e-5
-0.940, 1.689e-5
-0.939, 1.711e-5
-0.938, 1.725e-5
-0.937, 1.745e-5
-0.936, 1.758e-5
-0.935, 1.781e-5
-0.934, 1.794e-5
-0.933, 1.815e-5
-0.932, 1.835e-5
-0.931, 1.854e-5
-0.930, 1.873e-5
-0.929, 1.890e-5
-0.928, 1.905e-5
-0.927, 1.927e-5
-0.926, 1.942e-5
-0.925, 1.959e-5
-0.924, 1.981e-5
-0.923, 1.997e-5
-0.922, 2.019e-5
-0.921, 2.035e-5
-0.920, 2.046e-5
-0.919, 2.068e-5
-0.918, 2.081e-5
-0.917, 2.091e-5
-0.916, 2.108e-5
-0.915, 2.119e-5
-0.914, 2.135e-5
-0.913, 2.145e-5
-0.912, 2.155e-5
-0.911, 2.171e-5
-0.910, 2.182e-5
-0.909, 2.184e-5
-0.908, 2.193e-5
-0.907, 2.206e-5
-0.906, 2.213e-5
-0.905, 2.224e-5
-0.904, 2.231e-5
-0.903, 2.240e-5
-0.902, 2.241e-5
-0.901, 2.247e-5
-0.900, 2.252e-5
-0.899, 2.259e-5
-0.898, 2.259e-5
-0.897, 2.257e-5
-0.896, 2.271e-5
-0.895, 2.268e-5
-0.894, 2.267e-5
-0.893, 2.262e-5
-0.892, 2.264e-5
-0.891, 2.261e-5
-0.890, 2.258e-5
-0.889, 2.252e-5
-0.888, 2.247e-5
-0.887, 2.243e-5
-0.886, 2.236e-5
-0.885, 2.229e-5
-0.884, 2.226e-5
-0.883, 2.213e-5
-0.882, 2.207e-5
-0.881, 2.200e-5
-0.880, 2.189e-5
-0.879, 2.183e-5
-0.878, 2.172e-5
-0.877, 2.159e-5
-0.876, 2.153e-5
-0.875, 2.141e-5
-0.874, 2.130e-5
-0.873, 2.117e-5
-0.872, 2.103e-5
-0.871, 2.093e-5
-0.870, 2.079e-5
-0.869, 2.065e-5
-0.868, 2.053e-5
-0.867, 2.037e-5
-0.866, 2.026e-5
-0.865, 2.012e-5
-0.864, 1.996e-5
-0.863, 1.984e-5
-0.862, 1.969e-5
-0.861, 1.954e-5
-0.860, 1.940e-5
-0.859, 1.924e-5
-0.858, 1.906e-5
-0.857, 1.893e-5
-0.856, 1.878e-5
-0.855, 1.864e-5
-0.854, 1.849e-5
-0.853, 1.834e-5
-0.852, 1.819e-5
-0.851, 1.803e-5
-0.850, 1.788e-5
-0.849, 1.772e-5
-0.848, 1.759e-5
-0.847, 1.743e-5
-0.846, 1.729e-5
-0.845, 1.717e-5
-0.844, 1.701e-5
-0.843, 1.686e-5
-0.842, 1.669e-5
-0.841, 1.656e-5
-0.840, 1.640e-5
-0.839, 1.626e-5
-0.838, 1.612e-5
-0.837, 1.597e-5
-0.836, 1.584e-5
-0.835, 1.569e-5
-0.834, 1.556e-5
-0.833, 1.541e-5
-0.832, 1.525e-5
-0.831, 1.513e-5
-0.830, 1.500e-5
-0.829, 1.487e-5
-0.828, 1.474e-5
-0.827, 1.461e-5
-0.826, 1.449e-5
-0.825, 1.435e-5
-0.824, 1.423e-5
-0.823, 1.411e-5
-0.822, 1.398e-5
-0.821, 1.386e-5
-0.820, 1.375e-5
-0.819, 1.360e-5
-0.818, 1.350e-5
-0.817, 1.339e-5
-0.816, 1.328e-5
-0.815, 1.316e-5
-0.814, 1.306e-5
-0.813, 1.294e-5
-0.812, 1.284e-5
-0.811, 1.273e-5
-0.810, 1.262e-5
-0.809, 1.252e-5
-0.808, 1.241e-5
-0.807, 1.230e-5
-0.806, 1.221e-5
-0.805, 1.211e-5
-0.804, 1.202e-5
-0.803, 1.192e-5
-0.802, 1.182e-5
-0.801, 1.173e-5
-0.800, 1.164e-5
-0.799, 1.155e-5
-0.798, 1.146e-5
-0.797, 1.136e-5
-0.796, 1.128e-5
-0.795, 1.119e-5
-0.794, 1.112e-5
-0.793, 1.103e-5
-0.792, 1.095e-5
-0.791, 1.086e-5
-0.790, 1.078e-5
-0.789, 1.070e-5
-0.788, 1.062e-5
-0.787, 1.054e-5
-0.786, 1.046e-5
-0.785, 1.038e-5
-0.784, 1.031e-5
-0.783, 1.024e-5
-0.782, 1.016e-5
-0.781, 1.008e-5
-0.780, 1.001e-5
-0.779, 9.952e-6
-0.778, 9.868e-6
-0.777, 9.809e-6
-0.776, 9.734e-6
-0.775, 9.673e-6
-0.774, 9.609e-6
-0.773, 9.538e-6
-0.772, 9.478e-6
-0.771, 9.414e-6
-0.770, 9.348e-6
-0.769, 9.290e-6
-0.768, 9.219e-6
-0.767, 9.168e-6
-0.766, 9.103e-6
-0.765, 9.044e-6
-0.764, 8.990e-6
-0.763, 8.930e-6
-0.762, 8.868e-6
-0.761, 8.816e-6
-0.760, 8.763e-6
-0.759, 8.706e-6
-0.758, 8.651e-6
-0.757, 8.591e-6
-0.756, 8.542e-6
-0.755, 8.485e-6
-0.754, 8.434e-6
-0.753, 8.380e-6
-0.752, 8.334e-6
-0.751, 8.287e-6
-0.750, 8.237e-6
-0.749, 8.186e-6
-0.748, 8.139e-6
-0.747, 8.094e-6
-0.746, 8.041e-6
-0.745, 7.997e-6
-0.744, 7.950e-6
-0.743, 7.913e-6
-0.742, 7.859e-6
-0.741, 7.817e-6
-0.740, 7.773e-6
-0.739, 7.725e-6
-0.738, 7.680e-6
-0.737, 7.632e-6
-0.736, 7.591e-6
-0.735, 7.550e-6
-0.734, 7.511e-6
-0.733, 7.459e-6
-0.732, 7.426e-6
-0.731, 7.388e-6
-0.730, 7.337e-6
-0.729, 7.304e-6
-0.728, 7.266e-6
-0.727, 7.228e-6
-0.726, 7.194e-6
-0.725, 7.150e-6
-0.724, 7.120e-6
-0.723, 7.083e-6
-0.722, 7.040e-6
-0.721, 7.007e-6
-0.720, 6.968e-6
-0.719, 6.938e-6
-0.718, 6.903e-6
-0.717, 6.870e-6
-0.716, 6.834e-6
-0.715, 6.805e-6
-0.714, 6.763e-6
-0.713, 6.731e-6
-0.712, 6.695e-6
-0.711, 6.665e-6
-0.710, 6.637e-6
-0.709, 6.597e-6
-0.708, 6.570e-6
-0.707, 6.538e-6
-0.706, 6.502e-6
-0.705, 6.473e-6
-0.704, 6.432e-6
-0.703, 6.415e-6
-0.702, 6.382e-6
-0.701, 6.352e-6
-0.700, 6.322e-6
-0.699, 6.300e-6
-0.698, 6.262e-6
-0.697, 6.236e-6
-0.696, 6.208e-6
-0.695, 6.182e-6
-0.694, 6.154e-6
-0.693, 6.122e-6
-0.692, 6.103e-6
-0.691, 6.083e-6
-0.690, 6.042e-6
-0.689, 6.016e-6
-0.688, 5.994e-6
-0.687, 5.964e-6
-0.686, 5.937e-6
-0.685, 5.911e-6
-0.684, 5.886e-6
-0.683, 5.862e-6
-0.682, 5.837e-6
-0.681, 5.809e-6
-0.680, 5.781e-6
-0.679, 5.765e-6
-0.678, 5.735e-6
-0.677, 5.712e-6
-0.676, 5.693e-6
-0.675, 5.666e-6
-0.674, 5.645e-6
-0.673, 5.620e-6
-0.672, 5.598e-6
-0.671, 5.578e-6
-0.670, 5.544e-6
-0.669, 5.529e-6
-0.668, 5.507e-6
-0.667, 5.489e-6
-0.666, 5.457e-6
-0.665, 5.441e-6
-0.664, 5.420e-6
-0.663, 5.400e-6
-0.662, 5.377e-6
-0.661, 5.354e-6
-0.660, 5.333e-6
-0.659, 5.316e-6
-0.658, 5.290e-6
-0.657, 5.277e-6
-0.656, 5.249e-6
-0.655, 5.235e-6
-0.654, 5.214e-6
-0.653, 5.179e-6
-0.652, 5.173e-6
-0.651, 5.156e-6
-0.650, 5.132e-6
-0.649, 5.114e-6
-0.648, 5.093e-6
-0.647, 5.074e-6
-0.646, 5.053e-6
-0.645, 5.032e-6
-0.644, 5.024e-6
-0.643, 5.001e-6
-0.642, 4.984e-6
-0.641, 4.968e-6
-0.640, 4.955e-6
-0.639, 4.934e-6
-0.638, 4.913e-6
-0.637, 4.894e-6
-0.636, 4.883e-6
-0.635, 4.862e-6
-0.634, 4.839e-6
-0.633, 4.829e-6
-0.632, 4.807e-6
-0.631, 4.795e-6
-0.630, 4.774e-6
-0.629, 4.756e-6
-0.628, 4.743e-6
-0.627, 4.722e-6
-0.626, 4.710e-6
-0.625, 4.694e-6
-0.624, 4.676e-6
-0.623, 4.663e-6
-0.622, 4.649e-6
-0.621, 4.628e-6
-0.620, 4.617e-6
-0.619, 4.600e-6
-0.618, 4.582e-6
-0.617, 4.566e-6
-0.616, 4.554e-6
-0.615, 4.521e-6
-0.614, 4.517e-6
-0.613, 4.504e-6
-0.612, 4.489e-6
-0.611, 4.478e-6
-0.610, 4.459e-6
-0.609, 4.445e-6
-0.608, 4.434e-6
-0.607, 4.418e-6
-0.606, 4.406e-6
-0.605, 4.388e-6
-0.604, 4.377e-6
-0.603, 4.368e-6
-0.602, 4.339e-6
-0.601, 4.334e-6
-0.600, 4.323e-6
-0.599, 4.316e-6
-0.598, 4.296e-6
-0.597, 4.284e-6
-0.596, 4.274e-6
-0.595, 4.264e-6
-0.594, 4.248e-6
-0.593, 4.237e-6
-0.592, 4.223e-6
-0.591, 4.214e-6
-0.590, 4.203e-6
-0.589, 4.193e-6
-0.588, 4.180e-6
-0.587, 4.161e-6
-0.586, 4.150e-6
-0.585, 4.141e-6
-0.584, 4.128e-6
-0.583, 4.117e-6
-0.582, 4.100e-6
-0.581, 4.089e-6
-0.580, 4.074e-6
-0.579, 4.066e-6
-0.578, 4.054e-6
-0.577, 4.040e-6
-0.576, 4.024e-6
-0.575, 4.023e-6
-0.574, 4.012e-6
-0.573, 3.998e-6
-0.572, 3.986e-6
-0.571, 3.980e-6
-0.570, 3.963e-6
-0.569, 3.955e-6
-0.568, 3.941e-6
-0.567, 3.934e-6
-0.566, 3.922e-6
-0.565, 3.911e-6
-0.564, 3.901e-6
-0.563, 3.891e-6
-0.562, 3.880e-6
-0.561, 3.872e-6
-0.560, 3.855e-6
-0.559, 3.850e-6
-0.558, 3.835e-6
-0.557, 3.822e-6
-0.556, 3.817e-6
-0.555, 3.808e-6
-0.554, 3.796e-6
-0.553, 3.785e-6
-0.552, 3.776e-6
-0.551, 3.762e-6
-0.550, 3.753e-6
-0.549, 3.747e-6
-0.548, 3.737e-6
-0.547, 3.728e-6
-0.546, 3.717e-6
-0.545, 3.712e-6
-0.544, 3.697e-6
-0.543, 3.690e-6
-0.542, 3.684e-6
-0.541, 3.671e-6
-0.540, 3.665e-6
-0.539, 3.659e-6
-0.538, 3.653e-6
-0.537, 3.640e-6
-0.536, 3.629e-6
-0.535, 3.624e-6
-0.534, 3.612e-6
-0.533, 3.598e-6
-0.532, 3.594e-6
-0.531, 3.586e-6
-0.530, 3.572e-6
-0.529, 3.565e-6
-0.528, 3.558e-6
-0.527, 3.551e-6
-0.526, 3.545e-6
-0.525, 3.523e-6
-0.524, 3.523e-6
-0.523, 3.519e-6
-0.522, 3.508e-6
-0.521, 3.499e-6
-0.520, 3.492e-6
-0.519, 3.485e-6
-0.518, 3.478e-6
-0.517, 3.467e-6
-0.516, 3.457e-6
-0.515, 3.455e-6
-0.514, 3.444e-6
-0.513, 3.436e-6
-0.512, 3.439e-6
-0.511, 3.428e-6
-0.510, 3.415e-6
-0.509, 3.411e-6
-0.508, 3.405e-6
-0.507, 3.397e-6
-0.506, 3.385e-6
-0.505, 3.380e-6
-0.504, 3.373e-6
-0.503, 3.368e-6
-0.502, 3.361e-6
-0.501, 3.347e-6
-0.500, 3.346e-6
-0.499, 3.330e-6
-0.498, 3.329e-6
-0.497, 3.322e-6
-0.496, 3.320e-6
-0.495, 3.307e-6
-0.494, 3.310e-6
-0.493, 3.296e-6
-0.492, 3.294e-6
-0.491, 3.287e-6
-0.490, 3.279e-6
-0.489, 3.271e-6
-0.488, 3.269e-6
-0.487, 3.267e-6
-0.486, 3.259e-6
-0.485, 3.243e-6
-0.484, 3.244e-6
-0.483, 3.233e-6
-0.482, 3.224e-6
-0.481, 3.226e-6
-0.480, 3.212e-6
-0.479, 3.211e-6
-0.478, 3.200e-6
-0.477, 3.192e-6
-0.476, 3.192e-6
-0.475, 3.182e-6
-0.474, 3.168e-6
-0.473, 3.167e-6
-0.472, 3.168e-6
-0.471, 3.158e-6
-0.470, 3.149e-6
-0.469, 3.144e-6
-0.468, 3.138e-6
-0.467, 3.137e-6
-0.466, 3.125e-6
-0.465, 3.118e-6
-0.464, 3.112e-6
-0.463, 3.106e-6
-0.462, 3.102e-6
-0.461, 3.090e-6
-0.460, 3.085e-6
-0.459, 3.088e-6
-0.458, 3.073e-6
-0.457, 3.074e-6
-0.456, 3.070e-6
-0.455, 3.065e-6
-0.454, 3.061e-6
-0.453, 3.051e-6
-0.452, 3.049e-6
-0.451, 3.046e-6
-0.450, 3.038e-6
-0.449, 3.034e-6
-0.448, 3.012e-6
-0.447, 3.022e-6
-0.446, 3.022e-6
-0.445, 3.012e-6
-0.444, 3.007e-6
-0.443, 3.007e-6
-0.442, 2.993e-6
-0.441, 2.991e-6
-0.440, 2.984e-6
-0.439, 2.985e-6
-0.438, 2.973e-6
-0.437, 2.973e-6
-0.436, 2.971e-6
-0.435, 2.975e-6
-0.434, 2.959e-6
-0.433, 2.957e-6
-0.432, 2.948e-6
-0.431, 2.949e-6
-0.430, 2.942e-6
-0.429, 2.932e-6
-0.428, 2.925e-6
-0.427, 2.932e-6
-0.426, 2.925e-6
-0.425, 2.919e-6
-0.424, 2.911e-6
-0.423, 2.902e-6
-0.422, 2.901e-6
-0.421, 2.892e-6
-0.420, 2.896e-6
-0.419, 2.892e-6
-0.418, 2.884e-6
-0.417, 2.880e-6
-0.416, 2.876e-6
-0.415, 2.874e-6
-0.414, 2.867e-6
-0.413, 2.862e-6
-0.412, 2.866e-6
-0.411, 2.852e-6
-0.410, 2.816e-6
-0.409, 2.839e-6
-0.408, 2.840e-6
-0.407, 2.834e-6
-0.406, 2.834e-6
-0.405, 2.825e-6
-0.404, 2.828e-6
-0.403, 2.823e-6
-0.402, 2.817e-6
-0.401, 2.812e-6
-0.400, 2.808e-6
-0.399, 2.811e-6
-0.398, 2.802e-6
-0.397, 2.787e-6
-0.396, 2.796e-6
-0.395, 2.795e-6
-0.394, 2.789e-6
-0.393, 2.785e-6
-0.392, 2.780e-6
-0.391, 2.780e-6
-0.390, 2.774e-6
-0.389, 2.768e-6
-0.388, 2.763e-6
-0.387, 2.768e-6
-0.386, 2.760e-6
-0.385, 2.757e-6
-0.384, 2.764e-6
-0.383, 2.752e-6
-0.382, 2.749e-6
-0.381, 2.745e-6
-0.380, 2.745e-6
-0.379, 2.739e-6
-0.378, 2.735e-6
-0.377, 2.731e-6
-0.376, 2.729e-6
-0.375, 2.723e-6
-0.374, 2.726e-6
-0.373, 2.715e-6
-0.372, 2.715e-6
-0.371, 2.706e-6
-0.370, 2.703e-6
-0.369, 2.706e-6
-0.368, 2.701e-6
-0.367, 2.702e-6
-0.366, 2.698e-6
-0.365, 2.691e-6
-0.364, 2.693e-6
-0.363, 2.690e-6
-0.362, 2.685e-6
-0.361, 2.684e-6
-0.360, 2.679e-6
-0.359, 2.677e-6
-0.358, 2.675e-6
-0.357, 2.673e-6
-0.356, 2.672e-6
-0.355, 2.669e-6
-0.354, 2.662e-6
-0.353, 2.666e-6
-0.352, 2.656e-6
-0.351, 2.657e-6
-0.350, 2.659e-6
-0.349, 2.649e-6
-0.348, 2.649e-6
-0.347, 2.648e-6
-0.346, 2.635e-6
-0.345, 2.639e-6
-0.344, 2.637e-6
-0.343, 2.637e-6
-0.342, 2.633e-6
-0.341, 2.626e-6
-0.340, 2.630e-6
-0.339, 2.630e-6
-0.338, 2.621e-6
-0.337, 2.622e-6
-0.336, 2.619e-6
-0.335, 2.619e-6
-0.334, 2.614e-6
-0.333, 2.620e-6
-0.332, 2.616e-6
-0.331, 2.611e-6
-0.330, 2.609e-6
-0.329, 2.606e-6
-0.328, 2.603e-6
-0.327, 2.604e-6
-0.326, 2.604e-6
-0.325, 2.593e-6
-0.324, 2.598e-6
-0.323, 2.595e-6
-0.322, 2.591e-6
-0.321, 2.592e-6
-0.320, 2.580e-6
-0.319, 2.589e-6
-0.318, 2.583e-6
-0.317, 2.580e-6
-0.316, 2.585e-6
-0.315, 2.579e-6
-0.314, 2.578e-6
-0.313, 2.576e-6
-0.312, 2.575e-6
-0.311, 2.575e-6
-0.310, 2.574e-6
-0.309, 2.568e-6
-0.308, 2.574e-6
-0.307, 2.577e-6
-0.306, 2.570e-6
-0.305, 2.567e-6
-0.304, 2.563e-6
-0.303, 2.567e-6
-0.302, 2.564e-6
-0.301, 2.555e-6
-0.300, 2.562e-6
-0.299, 2.560e-6
-0.298, 2.557e-6
-0.297, 2.555e-6
-0.296, 2.555e-6
-0.295, 2.546e-6
-0.294, 2.547e-6
-0.293, 2.548e-6
-0.292, 2.550e-6
-0.291, 2.551e-6
-0.290, 2.543e-6
-0.289, 2.543e-6
-0.288, 2.538e-6
-0.287, 2.546e-6
-0.286, 2.541e-6
-0.285, 2.538e-6
-0.284, 2.539e-6
-0.283, 2.536e-6
-0.282, 2.543e-6
-0.281, 2.540e-6
-0.280, 2.533e-6
-0.279, 2.536e-6
-0.278, 2.531e-6
-0.277, 2.527e-6
-0.276, 2.527e-6
-0.275, 2.529e-6
-0.274, 2.527e-6
-0.273, 2.528e-6
-0.272, 2.526e-6
-0.271, 2.524e-6
-0.270, 2.524e-6
-0.269, 2.510e-6
-0.268, 2.520e-6
-0.267, 2.520e-6
-0.266, 2.512e-6
-0.265, 2.513e-6
-0.264, 2.512e-6
-0.263, 2.514e-6
-0.262, 2.512e-6
-0.261, 2.510e-6
-0.260, 2.512e-6
-0.259, 2.510e-6
-0.258, 2.509e-6
-0.257, 2.507e-6
-0.256, 2.502e-6
-0.255, 2.507e-6
-0.254, 2.503e-6
-0.253, 2.498e-6
-0.252, 2.506e-6
-0.251, 2.502e-6
-0.250, 2.496e-6
-0.249, 2.501e-6
-0.248, 2.497e-6
-0.247, 2.501e-6
-0.246, 2.494e-6
-0.245, 2.493e-6
-0.244, 2.493e-6
-0.243, 2.489e-6
-0.242, 2.486e-6
-0.241, 2.492e-6
-0.240, 2.485e-6
-0.239, 2.490e-6
-0.238, 2.487e-6
-0.237, 2.484e-6
-0.236, 2.483e-6
-0.235, 2.486e-6
-0.234, 2.475e-6
-0.233, 2.483e-6
-0.232, 2.480e-6
-0.231, 2.491e-6
-0.230, 2.484e-6
-0.229, 2.476e-6
-0.228, 2.479e-6
-0.227, 2.479e-6
-0.226, 2.474e-6
-0.225, 2.473e-6
-0.224, 2.473e-6
-0.223, 2.476e-6
-0.222, 2.474e-6
-0.221, 2.466e-6
-0.220, 2.471e-6
-0.219, 2.468e-6
-0.218, 2.456e-6
-0.217, 2.465e-6
-0.216, 2.463e-6
-0.215, 2.464e-6
-0.214, 2.462e-6
-0.213, 2.456e-6
-0.212, 2.460e-6
-0.211, 2.460e-6
-0.210, 2.453e-6
-0.209, 2.458e-6
-0.208, 2.455e-6
-0.207, 2.457e-6
-0.206, 2.453e-6
-0.205, 2.427e-6
-0.204, 2.446e-6
-0.203, 2.444e-6
-0.202, 2.445e-6
-0.201, 2.440e-6
-0.200, 2.446e-6
-0.199, 2.443e-6
-0.198, 2.438e-6
-0.197, 2.443e-6
-0.196, 2.442e-6
-0.195, 2.442e-6
-0.194, 2.436e-6
-0.193, 2.437e-6
-0.192, 2.425e-6
-0.191, 2.434e-6
-0.190, 2.431e-6
-0.189, 2.429e-6
-0.188, 2.431e-6
-0.187, 2.434e-6
-0.186, 2.424e-6
-0.185, 2.425e-6
-0.184, 2.425e-6
-0.183, 2.425e-6
-0.182, 2.426e-6
-0.181, 2.414e-6
-0.180, 2.422e-6
-0.179, 2.432e-6
-0.178, 2.421e-6
-0.177, 2.422e-6
-0.176, 2.415e-6
-0.175, 2.420e-6
-0.174, 2.413e-6
-0.173, 2.409e-6
-0.172, 2.415e-6
-0.171, 2.405e-6
-0.170, 2.409e-6
-0.169, 2.408e-6
-0.168, 2.402e-6
-0.167, 2.402e-6
-0.166, 2.399e-6
-0.165, 2.399e-6
-0.164, 2.405e-6
-0.163, 2.400e-6
-0.162, 2.397e-6
-0.161, 2.396e-6
-0.160, 2.390e-6
-0.159, 2.399e-6
-0.158, 2.390e-6
-0.157, 2.388e-6
-0.156, 2.387e-6
-0.155, 2.391e-6
-0.154, 2.380e-6
-0.153, 2.386e-6
-0.152, 2.381e-6
-0.151, 2.385e-6
-0.150, 2.381e-6
-0.149, 2.383e-6
-0.148, 2.376e-6
-0.147, 2.379e-6
-0.146, 2.373e-6
-0.145, 2.372e-6
-0.144, 2.374e-6
-0.143, 2.371e-6
-0.142, 2.371e-6
-0.141, 2.361e-6
-0.140, 2.368e-6
-0.139, 2.366e-6
-0.138, 2.361e-6
-0.137, 2.362e-6
-0.136, 2.362e-6
-0.135, 2.362e-6
-0.134, 2.361e-6
-0.133, 2.356e-6
-0.132, 2.359e-6
-0.131, 2.355e-6
-0.130, 2.354e-6
-0.129, 2.356e-6
-0.128, 2.363e-6
-0.127, 2.354e-6
-0.126, 2.352e-6
-0.125, 2.348e-6
-0.124, 2.349e-6
-0.123, 2.353e-6
-0.122, 2.346e-6
-0.121, 2.347e-6
-0.120, 2.345e-6
-0.119, 2.340e-6
-0.118, 2.344e-6
-0.117, 2.338e-6
-0.116, 2.341e-6
-0.115, 2.327e-6
-0.114, 2.339e-6
-0.113, 2.334e-6
-0.112, 2.334e-6
-0.111, 2.332e-6
-0.110, 2.334e-6
-0.109, 2.323e-6
-0.108, 2.329e-6
-0.107, 2.331e-6
-0.106, 2.327e-6
-0.105, 2.327e-6
-0.104, 2.326e-6
-0.103, 2.333e-6
-0.102, 2.328e-6
-0.101, 2.324e-6
-0.100, 2.322e-6
-0.099, 2.323e-6
-0.098, 2.323e-6
-0.097, 2.320e-6
-0.096, 2.316e-6
-0.095, 2.321e-6
-0.094, 2.322e-6
-0.093, 2.312e-6
-0.092, 2.317e-6
-0.091, 2.317e-6
-0.090, 2.304e-6
-0.089, 2.307e-6
-0.088, 2.315e-6
-0.087, 2.310e-6
-0.086, 2.312e-6
-0.085, 2.304e-6
-0.084, 2.312e-6
-0.083, 2.307e-6
-0.082, 2.302e-6
-0.081, 2.303e-6
-0.080, 2.305e-6
-0.079, 2.306e-6
-0.078, 2.298e-6
-0.077, 2.307e-6
-0.076, 2.305e-6
-0.075, 2.299e-6
-0.074, 2.300e-6
-0.073, 2.298e-6
-0.072, 2.299e-6
-0.071, 2.297e-6
-0.070, 2.295e-6
-0.069, 2.292e-6
-0.068, 2.295e-6
-0.067, 2.296e-6
-0.066, 2.292e-6
-0.065, 2.289e-6
-0.064, 2.283e-6
-0.063, 2.288e-6
-0.062, 2.289e-6
-0.061, 2.285e-6
-0.060, 2.286e-6
-0.059, 2.287e-6
-0.058, 2.281e-6
-0.057, 2.283e-6
-0.056, 2.280e-6
-0.055, 2.286e-6
-0.054, 2.280e-6
-0.053, 2.279e-6
-0.052, 2.276e-6
-0.051, 2.278e-6
-0.050, 2.280e-6
-0.049, 2.279e-6
-0.048, 2.275e-6
-0.047, 2.278e-6
-0.046, 2.277e-6
-0.045, 2.274e-6
-0.044, 2.276e-6
-0.043, 2.273e-6
-0.042, 2.271e-6
-0.041, 2.271e-6
-0.040, 2.274e-6
-0.039, 2.264e-6
-0.038, 2.267e-6
-0.037, 2.266e-6
-0.036, 2.269e-6
-0.035, 2.270e-6
-0.034, 2.267e-6
-0.033, 2.267e-6
-0.032, 2.262e-6
-0.031, 2.268e-6
-0.030, 2.266e-6
-0.029, 2.263e-6
-0.028, 2.266e-6
-0.027, 2.263e-6
-0.026, 2.272e-6
-0.025, 2.268e-6
-0.024, 2.262e-6
-0.023, 2.263e-6
-0.022, 2.263e-6
-0.021, 2.259e-6
-0.020, 2.264e-6
-0.019, 2.263e-6
-0.018, 2.257e-6
-0.017, 2.260e-6
-0.016, 2.259e-6
-0.015, 2.260e-6
-0.014, 2.258e-6
-0.013, 2.249e-6
-0.012, 2.255e-6
-0.011, 2.259e-6
-0.010, 2.255e-6
-0.009, 2.257e-6
-0.008, 2.254e-6
-0.007, 2.257e-6
-0.006, 2.258e-6
-0.005, 2.250e-6
-0.004, 2.256e-6
-0.003, 2.261e-6
-0.002, 2.253e-6
-0.001, 2.254e-6
-0.000, 2.223e-6
0.001, 2.251e-6
0.002, 2.248e-6
0.003, 2.248e-6
0.004, 2.249e-6
0.005, 2.251e-6
0.006, 2.250e-6
0.007, 2.248e-6
0.008, 2.249e-6
0.009, 2.252e-6
0.010, 2.251e-6
0.011, 2.249e-6
0.012, 2.248e-6
0.013, 2.248e-6
0.014, 2.246e-6
0.015, 2.250e-6
0.016, 2.247e-6
0.017, 2.250e-6
0.018, 2.253e-6
0.019, 2.243e-6
0.020, 2.248e-6
0.021, 2.252e-6
0.022, 2.249e-6
0.023, 2.247e-6
0.024, 2.250e-6
0.025, 2.259e-6
0.026, 2.259e-6
0.027, 2.248e-6
0.028, 2.249e-6
0.029, 2.252e-6
0.030, 2.253e-6
0.031, 2.257e-6
0.032, 2.250e-6
0.033, 2.250e-6
0.034, 2.253e-6
0.035, 2.248e-6
0.036, 2.257e-6
0.037, 2.255e-6
0.038, 2.243e-6
0.039, 2.248e-6
0.040, 2.250e-6
0.041, 2.255e-6
0.042, 2.253e-6
0.043, 2.250e-6
0.044, 2.253e-6
0.045, 2.256e-6
0.046, 2.249e-6
0.047, 2.253e-6
0.048, 2.252e-6
0.049, 2.256e-6
0.050, 2.255e-6
0.051, 2.248e-6
0.052, 2.253e-6
0.053, 2.257e-6
0.054, 2.252e-6
0.055, 2.253e-6
0.056, 2.258e-6
0.057, 2.256e-6
0.058, 2.257e-6
0.059, 2.251e-6
0.060, 2.258e-6
0.061, 2.258e-6
0.062, 2.254e-6
0.063, 2.256e-6
0.064, 2.243e-6
0.065, 2.257e-6
0.066, 2.254e-6
0.067, 2.253e-6
0.068, 2.258e-6
0.069, 2.260e-6
0.070, 2.254e-6
0.071, 2.256e-6
0.072, 2.257e-6
0.073, 2.260e-6
0.074, 2.257e-6
0.075, 2.257e-6
0.076, 2.262e-6
0.077, 2.271e-6
0.078, 2.258e-6
0.079, 2.258e-6
0.080, 2.261e-6
0.081, 2.261e-6
0.082, 2.257e-6
0.083, 2.259e-6
0.084, 2.261e-6
0.085, 2.266e-6
0.086, 2.260e-6
0.087, 2.262e-6
0.088, 2.260e-6
0.089, 2.253e-6
0.090, 2.263e-6
0.091, 2.260e-6
0.092, 2.260e-6
0.093, 2.264e-6
0.094, 2.259e-6
0.095, 2.262e-6
0.096, 2.258e-6
0.097, 2.264e-6
0.098, 2.263e-6
0.099, 2.257e-6
0.100, 2.264e-6
0.101, 2.267e-6
0.102, 2.272e-6
0.103, 2.262e-6
0.104, 2.270e-6
0.105, 2.267e-6
0.106, 2.265e-6
0.107, 2.263e-6
0.108, 2.268e-6
0.109, 2.264e-6
0.110, 2.263e-6
0.111, 2.261e-6
0.112, 2.266e-6
0.113, 2.268e-6
0.114, 2.266e-6
0.115, 2.256e-6
0.116, 2.267e-6
0.117, 2.266e-6
0.118, 2.265e-6
0.119, 2.262e-6
0.120, 2.264e-6
0.121, 2.269e-6
0.122, 2.264e-6
0.123, 2.263e-6
0.124, 2.271e-6
0.125, 2.265e-6
0.126, 2.262e-6
0.127, 2.271e-6
0.128, 2.275e-6
0.129, 2.272e-6
0.130, 2.272e-6
0.131, 2.267e-6
0.132, 2.269e-6
0.133, 2.272e-6
0.134, 2.271e-6
0.135, 2.269e-6
0.136, 2.268e-6
0.137, 2.273e-6
0.138, 2.277e-6
0.139, 2.264e-6
0.140, 2.268e-6
0.141, 2.266e-6
0.142, 2.270e-6
0.143, 2.272e-6
0.144, 2.271e-6
0.145, 2.274e-6
0.146, 2.272e-6
0.147, 2.265e-6
0.148, 2.274e-6
0.149, 2.270e-6
0.150, 2.275e-6
0.151, 2.271e-6
0.152, 2.271e-6
0.153, 2.274e-6
0.154, 2.277e-6
0.155, 2.273e-6
0.156, 2.274e-6
0.157, 2.275e-6
0.158, 2.275e-6
0.159, 2.279e-6
0.160, 2.276e-6
0.161, 2.276e-6
0.162, 2.278e-6
0.163, 2.278e-6
0.164, 2.279e-6
0.165, 2.281e-6
0.166, 2.270e-6
0.167, 2.277e-6
0.168, 2.273e-6
0.169, 2.285e-6
0.170, 2.281e-6
0.171, 2.279e-6
0.172, 2.285e-6
0.173, 2.284e-6
0.174, 2.284e-6
0.175, 2.283e-6
0.176, 2.287e-6
0.177, 2.289e-6
0.178, 2.287e-6
0.179, 2.298e-6
0.180, 2.295e-6
0.181, 2.298e-6
0.182, 2.291e-6
0.183, 2.295e-6
0.184, 2.292e-6
0.185, 2.303e-6
0.186, 2.296e-6
0.187, 2.297e-6
0.188, 2.302e-6
0.189, 2.304e-6
0.190, 2.304e-6
0.191, 2.307e-6
0.192, 2.299e-6
0.193, 2.307e-6
0.194, 2.309e-6
0.195, 2.312e-6
0.196, 2.313e-6
0.197, 2.318e-6
0.198, 2.312e-6
0.199, 2.322e-6
0.200, 2.316e-6
0.201, 2.322e-6
0.202, 2.333e-6
0.203, 2.325e-6
0.204, 2.329e-6
0.205, 2.313e-6
0.206, 2.328e-6
0.207, 2.335e-6
0.208, 2.337e-6
0.209, 2.337e-6
0.210, 2.348e-6
0.211, 2.344e-6
0.212, 2.348e-6
0.213, 2.355e-6
0.214, 2.352e-6
0.215, 2.360e-6
0.216, 2.361e-6
0.217, 2.360e-6
0.218, 2.368e-6
0.219, 2.369e-6
0.220, 2.379e-6
0.221, 2.377e-6
0.222, 2.386e-6
0.223, 2.391e-6
0.224, 2.390e-6
0.225, 2.403e-6
0.226, 2.404e-6
0.227, 2.405e-6
0.228, 2.413e-6
0.229, 2.418e-6
0.230, 2.432e-6
0.231, 2.429e-6
0.232, 2.436e-6
0.233, 2.440e-6
0.234, 2.444e-6
0.235, 2.451e-6
0.236, 2.454e-6
0.237, 2.461e-6
0.238, 2.461e-6
0.239, 2.471e-6
0.240, 2.481e-6
0.241, 2.484e-6
0.242, 2.490e-6
0.243, 2.483e-6
0.244, 2.502e-6
0.245, 2.510e-6
0.246, 2.517e-6
0.247, 2.523e-6
0.248, 2.532e-6
0.249, 2.542e-6
0.250, 2.545e-6
0.251, 2.553e-6
0.252, 2.565e-6
0.253, 2.571e-6
0.254, 2.576e-6
0.255, 2.584e-6
0.256, 2.588e-6
0.257, 2.602e-6
0.258, 2.612e-6
0.259, 2.616e-6
0.260, 2.632e-6
0.261, 2.646e-6
0.262, 2.648e-6
0.263, 2.661e-6
0.264, 2.670e-6
0.265, 2.680e-6
0.266, 2.697e-6
0.267, 2.701e-6
0.268, 2.714e-6
0.269, 2.717e-6
0.270, 2.733e-6
0.271, 2.746e-6
0.272, 2.761e-6
0.273, 2.777e-6
0.274, 2.785e-6
0.275, 2.794e-6
0.276, 2.810e-6
0.277, 2.826e-6
0.278, 2.838e-6
0.279, 2.849e-6
0.280, 2.868e-6
0.281, 2.893e-6
0.282, 2.904e-6
0.283, 2.908e-6
0.284, 2.932e-6
0.285, 2.946e-6
0.286, 2.958e-6
0.287, 2.977e-6
0.288, 2.992e-6
0.289, 3.013e-6
0.290, 3.031e-6
0.291, 3.047e-6
0.292, 3.065e-6
0.293, 3.084e-6
0.294, 3.094e-6
0.295, 3.118e-6
0.296, 3.146e-6
0.297, 3.171e-6
0.298, 3.190e-6
0.299, 3.207e-6
0.300, 3.234e-6
0.301, 3.261e-6
0.302, 3.287e-6
0.303, 3.309e-6
0.304, 3.329e-6
0.305, 3.361e-6
0.306, 3.384e-6
0.307, 3.417e-6
0.308, 3.447e-6
0.309, 3.478e-6
0.310, 3.502e-6
0.311, 3.536e-6
0.312, 3.566e-6
0.313, 3.612e-6
0.314, 3.641e-6
0.315, 3.676e-6
0.316, 3.718e-6
0.317, 3.761e-6
0.318, 3.793e-6
0.319, 3.835e-6
0.320, 3.862e-6
0.321, 3.914e-6
0.322, 3.964e-6
0.323, 4.007e-6
0.324, 4.057e-6
0.325, 4.108e-6
0.326, 4.158e-6
0.327, 4.211e-6
0.328, 4.267e-6
0.329, 4.324e-6
0.330, 4.373e-6
0.331, 4.430e-6
0.332, 4.506e-6
0.333, 4.584e-6
0.334, 4.636e-6
0.335, 4.706e-6
0.336, 4.772e-6
0.337, 4.850e-6
0.338, 4.926e-6
0.339, 4.997e-6
0.340, 5.081e-6
0.341, 5.164e-6
0.342, 5.246e-6
0.343, 5.342e-6
0.344, 5.434e-6
0.345, 5.521e-6
0.346, 5.610e-6
0.347, 5.713e-6
0.348, 5.831e-6
0.349, 5.942e-6
0.350, 6.053e-6
0.351, 6.172e-6
0.352, 6.288e-6
0.353, 6.419e-6
0.354, 6.552e-6
0.355, 6.682e-6
0.356, 6.826e-6
0.357, 6.956e-6
0.358, 7.107e-6
0.359, 7.256e-6
0.360, 7.417e-6
0.361, 7.595e-6
0.362, 7.772e-6
0.363, 7.932e-6
0.364, 8.131e-6
0.365, 8.334e-6
0.366, 8.521e-6
0.367, 8.731e-6
0.368, 8.927e-6
0.369, 9.159e-6
0.370, 9.393e-6
0.371, 9.571e-6
0.372, 9.838e-6
0.373, 1.009e-5
0.374, 1.034e-5
0.375, 1.062e-5
0.376, 1.089e-5
0.377, 1.119e-5
0.378, 1.149e-5
0.379, 1.177e-5
0.380, 1.210e-5
0.381, 1.241e-5
0.382, 1.276e-5
0.383, 1.312e-5
0.384, 1.357e-5
0.385, 1.393e-5
0.386, 1.431e-5
0.387, 1.470e-5
0.388, 1.513e-5
0.389, 1.556e-5
0.390, 1.600e-5
0.391, 1.640e-5
0.392, 1.690e-5
0.393, 1.743e-5
0.394, 1.790e-5
0.395, 1.842e-5
0.396, 1.898e-5
0.397, 1.945e-5
0.398, 2.010e-5
0.399, 2.066e-5
0.400, 2.126e-5
0.401, 2.194e-5
0.402, 2.262e-5
0.403, 2.321e-5
0.404, 2.393e-5
0.405, 2.470e-5
0.406, 2.542e-5
0.407, 2.612e-5
0.408, 2.687e-5
0.409, 2.751e-5
0.410, 2.803e-5
0.411, 2.907e-5
0.412, 3.002e-5
0.413, 3.093e-5
0.414, 3.182e-5
0.415, 3.277e-5
0.416, 3.370e-5
0.417, 3.480e-5
0.418, 3.577e-5
0.419, 3.678e-5
0.420, 3.784e-5
0.421, 3.899e-5
0.422, 3.993e-5
0.423, 4.109e-5
0.424, 4.222e-5
0.425, 4.347e-5
0.426, 4.469e-5
0.427, 4.596e-5
0.428, 4.722e-5
0.429, 4.838e-5
0.430, 4.976e-5
0.431, 5.112e-5
0.432, 5.237e-5
0.433, 5.384e-5
0.434, 5.526e-5
0.435, 5.690e-5
0.436, 5.819e-5
0.437, 5.965e-5
0.438, 6.108e-5
0.439, 6.259e-5
0.440, 6.383e-5
0.441, 6.557e-5
0.442, 6.708e-5
0.443, 6.850e-5
0.444, 7.001e-5
0.445, 7.157e-5
0.446, 7.320e-5
0.447, 7.471e-5
0.448, 7.576e-5
0.449, 7.755e-5
0.450, 7.916e-5
0.451, 8.077e-5
0.452, 8.236e-5
0.453, 8.374e-5
0.454, 8.545e-5
0.455, 8.683e-5
0.456, 8.823e-5
0.457, 8.988e-5
0.458, 9.133e-5
0.459, 9.261e-5
0.460, 9.418e-5
0.461, 9.546e-5
0.462, 9.686e-5
0.463, 9.820e-5
0.464, 9.922e-5
0.465, 1.008e-4
0.466, 1.022e-4
0.467, 1.031e-4
0.468, 1.045e-4
0.469, 1.055e-4
0.470, 1.066e-4
0.471, 1.077e-4
0.472, 1.085e-4
0.473, 1.097e-4
0.474, 1.102e-4
0.475, 1.113e-4
0.476, 1.123e-4
0.477, 1.129e-4
0.478, 1.138e-4
0.479, 1.144e-4
0.480, 1.150e-4
0.481, 1.157e-4
0.482, 1.163e-4
0.483, 1.168e-4
0.484, 1.173e-4
0.485, 1.177e-4
0.486, 1.184e-4
0.487, 1.188e-4
0.488, 1.190e-4
0.489, 1.192e-4
0.490, 1.194e-4
0.491, 1.197e-4
0.492, 1.198e-4
0.493, 1.197e-4
0.494, 1.198e-4
0.495, 1.199e-4
0.496, 1.197e-4
0.497, 1.198e-4
0.498, 1.197e-4
0.499, 1.193e-4
0.500, 1.193e-4
0.501, 1.191e-4
0.502, 1.189e-4
0.503, 1.187e-4
0.504, 1.184e-4
0.505, 1.182e-4
0.506, 1.178e-4
0.507, 1.174e-4
0.508, 1.171e-4
0.509, 1.168e-4
0.510, 1.164e-4
0.511, 1.159e-4
0.512, 1.157e-4
0.513, 1.153e-4
0.514, 1.147e-4
0.515, 1.143e-4
0.516, 1.138e-4
0.517, 1.133e-4
0.518, 1.128e-4
0.519, 1.122e-4
0.520, 1.117e-4
0.521, 1.112e-4
0.522, 1.106e-4
0.523, 1.100e-4
0.524, 1.094e-4
0.525, 1.088e-4
0.526, 1.083e-4
0.527, 1.077e-4
0.528, 1.071e-4
0.529, 1.066e-4
0.530, 1.060e-4
0.531, 1.054e-4
0.532, 1.049e-4
0.533, 1.043e-4
0.534, 1.037e-4
0.535, 1.031e-4
0.536, 1.025e-4
0.537, 1.020e-4
0.538, 1.014e-4
0.539, 1.008e-4
0.540, 1.002e-4
0.541, 9.965e-5
0.542, 9.908e-5
0.543, 9.851e-5
0.544, 9.793e-5
0.545, 9.740e-5
0.546, 9.683e-5
0.547, 9.627e-5
0.548, 9.573e-5
0.549, 9.520e-5
0.550, 9.461e-5
0.551, 9.408e-5
0.552, 9.356e-5
0.553, 9.305e-5
0.554, 9.252e-5
0.555, 9.200e-5
0.556, 9.151e-5
0.557, 9.100e-5
0.558, 9.051e-5
0.559, 9.001e-5
0.560, 8.952e-5
0.561, 8.906e-5
0.562, 8.859e-5
0.563, 8.809e-5
0.564, 8.763e-5
0.565, 8.718e-5
0.566, 8.672e-5
0.567, 8.628e-5
0.568, 8.582e-5
0.569, 8.539e-5
0.570, 8.497e-5
0.571, 8.452e-5
0.572, 8.411e-5
0.573, 8.369e-5
0.574, 8.327e-5
0.575, 8.286e-5
0.576, 8.243e-5
0.577, 8.206e-5
0.578, 8.166e-5
0.579, 8.126e-5
0.580, 8.090e-5
0.581, 8.052e-5
0.582, 8.014e-5
0.583, 7.978e-5
0.584, 7.941e-5
0.585, 7.906e-5
0.586, 7.870e-5
0.587, 7.835e-5
0.588, 7.801e-5
0.589, 7.769e-5
0.590, 7.732e-5
0.591, 7.700e-5
0.592, 7.666e-5
0.593, 7.635e-5
0.594, 7.603e-5
0.595, 7.570e-5
0.596, 7.540e-5
0.597, 7.509e-5
0.598, 7.478e-5
0.599, 7.448e-5
0.600, 7.418e-5
0.601, 7.389e-5
0.602, 7.360e-5
0.603, 7.331e-5
0.604, 7.304e-5
0.605, 7.276e-5
0.606, 7.248e-5
0.607, 7.222e-5
0.608, 7.195e-5
0.609, 7.169e-5
0.610, 7.142e-5
0.611, 7.116e-5
0.612, 7.091e-5
0.613, 7.066e-5
0.614, 7.038e-5
0.615, 7.015e-5
0.616, 6.990e-5
0.617, 6.967e-5
0.618, 6.943e-5
0.619, 6.919e-5
0.620, 6.897e-5
0.621, 6.874e-5
0.622, 6.850e-5
0.623, 6.828e-5
0.624, 6.806e-5
0.625, 6.785e-5
0.626, 6.763e-5
0.627, 6.740e-5
0.628, 6.720e-5
0.629, 6.699e-5
0.630, 6.679e-5
0.631, 6.658e-5
0.632, 6.638e-5
0.633, 6.618e-5
0.634, 6.598e-5
0.635, 6.578e-5
0.636, 6.559e-5
0.637, 6.540e-5
0.638, 6.521e-5
0.639, 6.503e-5
0.640, 6.485e-5
0.641, 6.466e-5
0.642, 6.448e-5
0.643, 6.429e-5
0.644, 6.412e-5
0.645, 6.394e-5
0.646, 6.377e-5
0.647, 6.359e-5
0.648, 6.342e-5
0.649, 6.326e-5
0.650, 6.309e-5
0.651, 6.292e-5
0.652, 6.276e-5
0.653, 6.259e-5
0.654, 6.244e-5
0.655, 6.227e-5
0.656, 6.211e-5
0.657, 6.196e-5
0.658, 6.180e-5
0.659, 6.164e-5
0.660, 6.150e-5
0.661, 6.135e-5
0.662, 6.120e-5
0.663, 6.105e-5
0.664, 6.090e-5
0.665, 6.075e-5
0.666, 6.061e-5
0.667, 6.047e-5
0.668, 6.033e-5
0.669, 6.020e-5
0.670, 6.006e-5
0.671, 5.992e-5
0.672, 5.979e-5
0.673, 5.966e-5
0.674, 5.952e-5
0.675, 5.938e-5
0.676, 5.926e-5
0.677, 5.913e-5
0.678, 5.899e-5
0.679, 5.887e-5
0.680, 5.874e-5
0.681, 5.862e-5
0.682, 5.850e-5
0.683, 5.837e-5
0.684, 5.826e-5
0.685, 5.813e-5
0.686, 5.801e-5
0.687, 5.790e-5
0.688, 5.778e-5
0.689, 5.767e-5
0.690, 5.755e-5
0.691, 5.745e-5
0.692, 5.733e-5
0.693, 5.721e-5
0.694, 5.710e-5
0.695, 5.699e-5
0.696, 5.687e-5
0.697, 5.678e-5
0.698, 5.666e-5
0.699, 5.656e-5
0.700, 5.645e-5
0.701, 5.635e-5
0.702, 5.624e-5
0.703, 5.614e-5
0.704, 5.603e-5
0.705, 5.594e-5
0.706, 5.583e-5
0.707, 5.573e-5
0.708, 5.564e-5
0.709, 5.554e-5
0.710, 5.543e-5
0.711, 5.534e-5
0.712, 5.525e-5
0.713, 5.516e-5
0.714, 5.505e-5
0.715, 5.496e-5
0.716, 5.488e-5
0.717, 5.479e-5
0.718, 5.469e-5
0.719, 5.460e-5
0.720, 5.450e-5
0.721, 5.441e-5
0.722, 5.432e-5
0.723, 5.422e-5
0.724, 5.415e-5
0.725, 5.406e-5
0.726, 5.397e-5
0.727, 5.389e-5
0.728, 5.380e-5
0.729, 5.371e-5
0.730, 5.364e-5
0.731, 5.354e-5
0.732, 5.346e-5
0.733, 5.339e-5
0.734, 5.330e-5
0.735, 5.322e-5
0.736, 5.314e-5
0.737, 5.306e-5
0.738, 5.298e-5
0.739, 5.290e-5
0.740, 5.283e-5
0.741, 5.275e-5
0.742, 5.268e-5
0.743, 5.260e-5
0.744, 5.252e-5
0.745, 5.245e-5
0.746, 5.237e-5
0.747, 5.229e-5
0.748, 5.222e-5
0.749, 5.215e-5
0.750, 5.207e-5
0.751, 5.200e-5
0.752, 5.193e-5
0.753, 5.186e-5
0.754, 5.179e-5
0.755, 5.170e-5
0.756, 5.165e-5
0.757, 5.158e-5
0.758, 5.150e-5
0.759, 5.144e-5
0.760, 5.137e-5
0.761, 5.130e-5
0.762, 5.124e-5
0.763, 5.116e-5
0.764, 5.111e-5
0.765, 5.104e-5
0.766, 5.097e-5
0.767, 5.091e-5
0.768, 5.084e-5
0.769, 5.078e-5
0.770, 5.072e-5
0.771, 5.065e-5
0.772, 5.058e-5
0.773, 5.053e-5
0.774, 5.045e-5
0.775, 5.039e-5
0.776, 5.033e-5
0.777, 5.027e-5
0.778, 5.022e-5
0.779, 5.015e-5
0.780, 5.009e-5
0.781, 5.002e-5
0.782, 4.997e-5
0.783, 4.992e-5
0.784, 4.985e-5
0.785, 4.981e-5
0.786, 4.975e-5
0.787, 4.969e-5
0.788, 4.963e-5
0.789, 4.957e-5
0.790, 4.952e-5
0.791, 4.946e-5
0.792, 4.941e-5
0.793, 4.936e-5
0.794, 4.930e-5
0.795, 4.924e-5
0.796, 4.919e-5
0.797, 4.914e-5
0.798, 4.908e-5
0.799, 4.903e-5
0.800, 4.896e-5
0.801, 4.892e-5
0.802, 4.887e-5
0.803, 4.881e-5
0.804, 4.877e-5
0.805, 4.872e-5
0.806, 4.865e-5
0.807, 4.861e-5
0.808, 4.857e-5
0.809, 4.852e-5
0.810, 4.847e-5
0.811, 4.841e-5
0.812, 4.837e-5
0.813, 4.832e-5
0.814, 4.827e-5
0.815, 4.822e-5
0.816, 4.816e-5
0.817, 4.813e-5
0.818, 4.807e-5
0.819, 4.799e-5
0.820, 4.798e-5
0.821, 4.793e-5
0.822, 4.788e-5
0.823, 4.784e-5
0.824, 4.779e-5
0.825, 4.775e-5
0.826, 4.770e-5
0.827, 4.766e-5
0.828, 4.761e-5
0.829, 4.757e-5
0.830, 4.753e-5
0.831, 4.748e-5
0.832, 4.742e-5
0.833, 4.739e-5
0.834, 4.734e-5
0.835, 4.730e-5
0.836, 4.727e-5
0.837, 4.723e-5
0.838, 4.717e-5
0.839, 4.713e-5
0.840, 4.710e-5
0.841, 4.705e-5
0.842, 4.701e-5
0.843, 4.697e-5
0.844, 4.693e-5
0.845, 4.690e-5
0.846, 4.685e-5
0.847, 4.681e-5
0.848, 4.677e-5
0.849, 4.673e-5
0.850, 4.668e-5
0.851, 4.664e-5
0.852, 4.661e-5
0.853, 4.657e-5
0.854, 4.653e-5
0.855, 4.649e-5
0.856, 4.644e-5
0.857, 4.640e-5
0.858, 4.637e-5
0.859, 4.634e-5
0.860, 4.630e-5
0.861, 4.626e-5
0.862, 4.622e-5
0.863, 4.618e-5
0.864, 4.615e-5
0.865, 4.612e-5
0.866, 4.608e-5
0.867, 4.604e-5
0.868, 4.601e-5
0.869, 4.597e-5
0.870, 4.594e-5
0.871, 4.590e-5
0.872, 4.587e-5
0.873, 4.583e-5
0.874, 4.580e-5
0.875, 4.576e-5
0.876, 4.572e-5
0.877, 4.570e-5
0.878, 4.565e-5
0.879, 4.562e-5
0.880, 4.559e-5
0.881, 4.557e-5
0.882, 4.553e-5
0.883, 4.547e-5
0.884, 4.545e-5
0.885, 4.542e-5
0.886, 4.539e-5
0.887, 4.536e-5
0.888, 4.533e-5
0.889, 4.531e-5
0.890, 4.527e-5
0.891, 4.523e-5
0.892, 4.520e-5
0.893, 4.517e-5
0.894, 4.514e-5
0.895, 4.511e-5
0.896, 4.509e-5
0.897, 4.505e-5
0.898, 4.501e-5
0.899, 4.498e-5
0.900, 4.496e-5
0.901, 4.493e-5
0.902, 4.489e-5
0.903, 4.487e-5
0.904, 4.484e-5
0.905, 4.481e-5
0.906, 4.478e-5
0.907, 4.475e-5
0.908, 4.473e-5
0.909, 4.469e-5
0.910, 4.467e-5
0.911, 4.464e-5
0.912, 4.461e-5
0.913, 4.459e-5
0.914, 4.456e-5
0.915, 4.452e-5
0.916, 4.450e-5
0.917, 4.448e-5
0.918, 4.444e-5
0.919, 4.442e-5
0.920, 4.439e-5
0.921, 4.438e-5
0.922, 4.435e-5
0.923, 4.431e-5
0.924, 4.429e-5
0.925, 4.427e-5
0.926, 4.423e-5
0.927, 4.421e-5
0.928, 4.418e-5
0.929, 4.417e-5
0.930, 4.414e-5
0.931, 4.411e-5
0.932, 4.409e-5
0.933, 4.407e-5
0.934, 4.402e-5
0.935, 4.400e-5
0.936, 4.398e-5
0.937, 4.396e-5
0.938, 4.394e-5
0.939, 4.391e-5
0.940, 4.389e-5
0.941, 4.387e-5
0.942, 4.384e-5
0.943, 4.382e-5
0.944, 4.379e-5
0.945, 4.378e-5
0.946, 4.375e-5
0.947, 4.374e-5
0.948, 4.371e-5
0.949, 4.369e-5
0.950, 4.366e-5
0.951, 4.364e-5
0.952, 4.362e-5
0.953, 4.359e-5
0.954, 4.357e-5
0.955, 4.354e-5
0.956, 4.352e-5
0.957, 4.351e-5
0.958, 4.348e-5
0.959, 4.346e-5
0.960, 4.343e-5
0.961, 4.342e-5
0.962, 4.340e-5
0.963, 4.338e-5
0.964, 4.336e-5
0.965, 4.334e-5
0.966, 4.332e-5
0.967, 4.329e-5
0.968, 4.327e-5
0.969, 4.326e-5
0.970, 4.324e-5
0.971, 4.322e-5
0.972, 4.320e-5
0.973, 4.318e-5
0.974, 4.316e-5
0.975, 4.314e-5
0.976, 4.312e-5
0.977, 4.312e-5
0.978, 4.308e-5
0.979, 4.306e-5
0.980, 4.305e-5
0.981, 4.303e-5
0.982, 4.301e-5
0.983, 4.300e-5
0.984, 4.298e-5
0.985, 4.296e-5
0.986, 4.294e-5
0.987, 4.293e-5
0.988, 4.292e-5
0.989, 4.290e-5
0.990, 4.288e-5
0.991, 4.286e-5
0.992, 4.285e-5
0.993, 4.283e-5
0.994, 4.281e-5
0.995, 4.279e-5
0.996, 4.278e-5
0.997, 4.278e-5
0.998, 4.276e-5
0.999, 4.275e-5
1.000, 4.203e-5
0.999, 4.159e-5
0.998, 4.144e-5
0.997, 4.130e-5
0.996, 4.117e-5
0.995, 4.107e-5
0.994, 4.098e-5
0.993, 4.088e-5
0.992, 4.080e-5
0.991, 4.072e-5
0.990, 4.065e-5
0.989, 4.058e-5
0.988, 4.051e-5
0.987, 4.043e-5
0.986, 4.039e-5
0.985, 4.031e-5
0.984, 4.025e-5
0.983, 4.020e-5
0.982, 4.012e-5
0.981, 4.008e-5
0.980, 4.003e-5
0.979, 3.996e-5
0.978, 3.992e-5
0.977, 3.986e-5
0.976, 3.982e-5
0.975, 3.977e-5
0.974, 3.973e-5
0.973, 3.968e-5
0.972, 3.962e-5
0.971, 3.958e-5
0.970, 3.954e-5
0.969, 3.950e-5
0.968, 3.945e-5
0.967, 3.941e-5
0.966, 3.937e-5
0.965, 3.933e-5
0.964, 3.928e-5
0.963, 3.924e-5
0.962, 3.921e-5
0.961, 3.916e-5
0.960, 3.914e-5
0.959, 3.909e-5
0.958, 3.906e-5
0.957, 3.903e-5
0.956, 3.898e-5
0.955, 3.894e-5
0.954, 3.891e-5
0.953, 3.887e-5
0.952, 3.882e-5
0.951, 3.880e-5
0.950, 3.876e-5
0.949, 3.873e-5
0.948, 3.868e-5
0.947, 3.865e-5
0.946, 3.863e-5
0.945, 3.859e-5
0.944, 3.856e-5
0.943, 3.853e-5
0.942, 3.850e-5
0.941, 3.847e-5
0.940, 3.843e-5
0.939, 3.840e-5
0.938, 3.837e-5
0.937, 3.834e-5
0.936, 3.831e-5
0.935, 3.829e-5
0.934, 3.826e-5
0.933, 3.823e-5
0.932, 3.819e-5
0.931, 3.816e-5
0.930, 3.814e-5
0.929, 3.811e-5
0.928, 3.808e-5
0.927, 3.805e-5
0.926, 3.803e-5
0.925, 3.799e-5
0.924, 3.796e-5
0.923, 3.794e-5
0.922, 3.790e-5
0.921, 3.788e-5
0.920, 3.786e-5
0.919, 3.783e-5
0.918, 3.780e-5
0.917, 3.778e-5
0.916, 3.775e-5
0.915, 3.773e-5
0.914, 3.770e-5
0.913, 3.767e-5
0.912, 3.765e-5
0.911, 3.762e-5
0.910, 3.760e-5
0.909, 3.759e-5
0.908, 3.755e-5
0.907, 3.752e-5
0.906, 3.751e-5
0.905, 3.748e-5
0.904, 3.745e-5
0.903, 3.743e-5
0.902, 3.740e-5
0.901, 3.739e-5
0.900, 3.735e-5
0.899, 3.733e-5
0.898, 3.731e-5
0.897, 3.729e-5
0.896, 3.725e-5
0.895, 3.724e-5
0.894, 3.721e-5
0.893, 3.719e-5
0.892, 3.716e-5
0.891, 3.714e-5
0.890, 3.713e-5
0.889, 3.710e-5
0.888, 3.708e-5
0.887, 3.706e-5
0.886, 3.704e-5
0.885, 3.702e-5
0.884, 3.700e-5
0.883, 3.698e-5
0.882, 3.696e-5
0.881, 3.693e-5
0.880, 3.691e-5
0.879, 3.689e-5
0.878, 3.687e-5
0.877, 3.685e-5
0.876, 3.683e-5
0.875, 3.681e-5
0.874, 3.679e-5
0.873, 3.677e-5
0.872, 3.674e-5
0.871, 3.673e-5
0.870, 3.671e-5
0.869, 3.669e-5
0.868, 3.666e-5
0.867, 3.664e-5
0.866, 3.663e-5
0.865, 3.661e-5
0.864, 3.658e-5
0.863, 3.657e-5
0.862, 3.655e-5
0.861, 3.653e-5
0.860, 3.650e-5
0.859, 3.648e-5
0.858, 3.649e-5
0.857, 3.645e-5
0.856, 3.642e-5
0.855, 3.642e-5
0.854, 3.639e-5
0.853, 3.638e-5
0.852, 3.635e-5
0.851, 3.634e-5
0.850, 3.632e-5
0.849, 3.629e-5
0.848, 3.628e-5
0.847, 3.626e-5
0.846, 3.625e-5
0.845, 3.621e-5
0.844, 3.620e-5
0.843, 3.618e-5
0.842, 3.617e-5
0.841, 3.615e-5
0.840, 3.614e-5
0.839, 3.611e-5
0.838, 3.610e-5
0.837, 3.608e-5
0.836, 3.606e-5
0.835, 3.604e-5
0.834, 3.603e-5
0.833, 3.601e-5
0.832, 3.601e-5
0.831, 3.598e-5
0.830, 3.596e-5
0.829, 3.595e-5
0.828, 3.592e-5
0.827, 3.591e-5
0.826, 3.590e-5
0.825, 3.587e-5
0.824, 3.585e-5
0.823, 3.585e-5
0.822, 3.583e-5
0.821, 3.581e-5
0.820, 3.581e-5
0.819, 3.579e-5
0.818, 3.577e-5
0.817, 3.574e-5
0.816, 3.573e-5
0.815, 3.571e-5
0.814, 3.569e-5
0.813, 3.568e-5
0.812, 3.566e-5
0.811, 3.565e-5
0.810, 3.564e-5
0.809, 3.561e-5
0.808, 3.560e-5
0.807, 3.560e-5
0.806, 3.557e-5
0.805, 3.556e-5
0.804, 3.553e-5
0.803, 3.552e-5
0.802, 3.550e-5
0.801, 3.549e-5
0.800, 3.547e-5
0.799, 3.546e-5
0.798, 3.545e-5
0.797, 3.543e-5
0.796, 3.542e-5
0.795, 3.539e-5
0.794, 3.538e-5
0.793, 3.536e-5
0.792, 3.536e-5
0.791, 3.534e-5
0.790, 3.533e-5
0.789, 3.531e-5
0.788, 3.530e-5
0.787, 3.528e-5
0.786, 3.527e-5
0.785, 3.525e-5
0.784, 3.523e-5
0.783, 3.522e-5
0.782, 3.521e-5
0.781, 3.521e-5
0.780, 3.518e-5
0.779, 3.516e-5
0.778, 3.516e-5
0.777, 3.514e-5
0.776, 3.512e-5
0.775, 3.511e-5
0.774, 3.510e-5
0.773, 3.509e-5
0.772, 3.506e-5
0.771, 3.505e-5
0.770, 3.504e-5
0.769, 3.502e-5
0.768, 3.501e-5
0.767, 3.499e-5
0.766, 3.498e-5
0.765, 3.497e-5
0.764, 3.495e-5
0.763, 3.494e-5
0.762, 3.493e-5
0.761, 3.491e-5
0.760, 3.490e-5
0.759, 3.488e-5
0.758, 3.487e-5
0.757, 3.486e-5
0.756, 3.485e-5
0.755, 3.483e-5
0.754, 3.482e-5
0.753, 3.480e-5
0.752, 3.479e-5
0.751, 3.478e-5
0.750, 3.476e-5
0.749, 3.475e-5
0.748, 3.473e-5
0.747, 3.472e-5
0.746, 3.472e-5
0.745, 3.469e-5
0.744, 3.469e-5
0.743, 3.466e-5
0.742, 3.466e-5
0.741, 3.464e-5
0.740, 3.463e-5
0.739, 3.462e-5
0.738, 3.461e-5
0.737, 3.459e-5
0.736, 3.458e-5
0.735, 3.456e-5
0.734, 3.455e-5
0.733, 3.454e-5
0.732, 3.452e-5
0.731, 3.451e-5
0.730, 3.451e-5
0.729, 3.449e-5
0.728, 3.447e-5
0.727, 3.446e-5
0.726, 3.445e-5
0.725, 3.444e-5
0.724, 3.442e-5
0.723, 3.441e-5
0.722, 3.440e-5
0.721, 3.439e-5
0.720, 3.437e-5
0.719, 3.436e-5
0.718, 3.435e-5
0.717, 3.433e-5
0.716, 3.432e-5
0.715, 3.430e-5
0.714, 3.429e-5
0.713, 3.428e-5
0.712, 3.426e-5
0.711, 3.426e-5
0.710, 3.425e-5
0.709, 3.424e-5
0.708, 3.422e-5
0.707, 3.421e-5
0.706, 3.420e-5
0.705, 3.419e-5
0.704, 3.418e-5
0.703, 3.416e-5
0.702, 3.415e-5
0.701, 3.414e-5
0.700, 3.412e-5
0.699, 3.411e-5
0.698, 3.410e-5
0.697, 3.408e-5
0.696, 3.407e-5
0.695, 3.406e-5
0.694, 3.405e-5
0.693, 3.403e-5
0.692, 3.401e-5
0.691, 3.400e-5
0.690, 3.399e-5
0.689, 3.398e-5
0.688, 3.397e-5
0.687, 3.395e-5
0.686, 3.394e-5
0.685, 3.393e-5
0.684, 3.391e-5
0.683, 3.390e-5
0.682, 3.389e-5
0.681, 3.387e-5
0.680, 3.386e-5
0.679, 3.385e-5
0.678, 3.383e-5
0.677, 3.382e-5
0.676, 3.380e-5
0.675, 3.378e-5
0.674, 3.378e-5
0.673, 3.376e-5
0.672, 3.374e-5
0.671, 3.373e-5
0.670, 3.372e-5
0.669, 3.371e-5
0.668, 3.369e-5
0.667, 3.367e-5
0.666, 3.367e-5
0.665, 3.364e-5
0.664, 3.363e-5
0.663, 3.361e-5
0.662, 3.360e-5
0.661, 3.358e-5
0.660, 3.356e-5
0.659, 3.354e-5
0.658, 3.353e-5
0.657, 3.351e-5
0.656, 3.349e-5
0.655, 3.348e-5
0.654, 3.346e-5
0.653, 3.346e-5
0.652, 3.343e-5
0.651, 3.341e-5
0.650, 3.339e-5
0.649, 3.337e-5
0.648, 3.335e-5
0.647, 3.333e-5
0.646, 3.331e-5
0.645, 3.329e-5
0.644, 3.327e-5
0.643, 3.325e-5
0.642, 3.323e-5
0.641, 3.321e-5
0.640, 3.317e-5
0.639, 3.316e-5
0.638, 3.315e-5
0.637, 3.312e-5
0.636, 3.309e-5
0.635, 3.306e-5
0.634, 3.305e-5
0.633, 3.302e-5
0.632, 3.300e-5
0.631, 3.297e-5
0.630, 3.294e-5
0.629, 3.291e-5
0.628, 3.289e-5
0.627, 3.286e-5
0.626, 3.283e-5
0.625, 3.279e-5
0.624, 3.276e-5
0.623, 3.274e-5
0.622, 3.270e-5
0.621, 3.267e-5
0.620, 3.263e-5
0.619, 3.259e-5
0.618, 3.256e-5
0.617, 3.252e-5
0.616, 3.248e-5
0.615, 3.247e-5
0.614, 3.242e-5
0.613, 3.237e-5
0.612, 3.231e-5
0.611, 3.227e-5
0.610, 3.223e-5
0.609, 3.217e-5
0.608, 3.213e-5
0.607, 3.207e-5
0.606, 3.202e-5
0.605, 3.197e-5
0.604, 3.191e-5
0.603, 3.185e-5
0.602, 3.181e-5
0.601, 3.174e-5
0.600, 3.167e-5
0.599, 3.161e-5
0.598, 3.154e-5
0.597, 3.147e-5
0.596, 3.139e-5
0.595, 3.131e-5
0.594, 3.126e-5
0.593, 3.117e-5
0.592, 3.108e-5
0.591, 3.099e-5
0.590, 3.091e-5
0.589, 3.079e-5
0.588, 3.070e-5
0.587, 3.062e-5
0.586, 3.052e-5
0.585, 3.040e-5
0.584, 3.030e-5
0.583, 3.019e-5
0.582, 3.007e-5
0.581, 2.996e-5
0.580, 2.982e-5
0.579, 2.969e-5
0.578, 2.957e-5
0.577, 2.942e-5
0.576, 2.931e-5
0.575, 2.914e-5
0.574, 2.899e-5
0.573, 2.884e-5
0.572, 2.866e-5
0.571, 2.849e-5
0.570, 2.831e-5
0.569, 2.814e-5
0.568, 2.794e-5
0.567, 2.774e-5
0.566, 2.754e-5
0.565, 2.734e-5
0.564, 2.712e-5
0.563, 2.691e-5
0.562, 2.666e-5
0.561, 2.642e-5
0.560, 2.617e-5
0.559, 2.592e-5
0.558, 2.563e-5
0.557, 2.538e-5
0.556, 2.508e-5
0.555, 2.477e-5
0.554, 2.448e-5
0.553, 2.416e-5
0.552, 2.381e-5
0.551, 2.351e-5
0.550, 2.314e-5
0.549, 2.278e-5
0.548, 2.236e-5
0.547, 2.197e-5
0.546, 2.159e-5
0.545, 2.116e-5
0.544, 2.074e-5
0.543, 2.027e-5
0.542, 1.978e-5
0.541, 1.932e-5
0.540, 1.879e-5
0.539, 1.827e-5
0.538, 1.769e-5
0.537, 1.713e-5
0.536, 1.660e-5
0.535, 1.600e-5
0.534, 1.542e-5
0.533, 1.480e-5
0.532, 1.411e-5
0.531, 1.349e-5
0.530, 1.283e-5
0.529, 1.211e-5
0.528, 1.140e-5
0.527, 1.058e-5
0.526, 9.824e-6
0.525, 9.191e-6
0.524, 8.295e-6
0.523, 7.402e-6
0.522, 6.552e-6
0.521, 5.666e-6
0.520, 4.752e-6
0.519, 3.770e-6
0.518, 2.789e-6
0.517, 1.846e-6
0.516, 8.119e-7
0.515, -1.979e-7
0.514, -1.275e-6
0.513, -2.415e-6
0.512, -3.767e-6
0.511, -4.808e-6
0.510, -5.987e-6
0.509, -7.084e-6
0.508, -8.326e-6
0.507, -9.628e-6
0.506, -1.089e-5
0.505, -1.216e-5
0.504, -1.349e-5
0.503, -1.484e-5
0.502, -1.619e-5
0.501, -1.756e-5
0.500, -1.902e-5
0.499, -2.027e-5
0.498, -2.183e-5
0.497, -2.331e-5
0.496, -2.477e-5
0.495, -2.634e-5
0.494, -2.784e-5
0.493, -2.937e-5
0.492, -3.104e-5
0.491, -3.256e-5
0.490, -3.418e-5
0.489, -3.577e-5
0.488, -3.726e-5
0.487, -3.917e-5
0.486, -4.094e-5
0.485, -4.233e-5
0.484, -4.371e-5
0.483, -4.549e-5
0.482, -4.701e-5
0.481, -4.854e-5
0.480, -5.003e-5
0.479, -5.174e-5
0.478, -5.323e-5
0.477, -5.463e-5
0.476, -5.636e-5
0.475, -5.793e-5
0.474, -5.875e-5
0.473, -6.060e-5
0.472, -6.177e-5
0.471, -6.321e-5
0.470, -6.481e-5
0.469, -6.605e-5
0.468, -6.725e-5
0.467, -6.848e-5
0.466, -6.981e-5
0.465, -7.106e-5
0.464, -7.202e-5
0.463, -7.324e-5
0.462, -7.425e-5
0.461, -7.498e-5
0.460, -7.624e-5
0.459, -7.712e-5
0.458, -7.808e-5
0.457, -7.885e-5
0.456, -7.953e-5
0.455, -8.041e-5
0.454, -8.110e-5
0.453, -8.176e-5
0.452, -8.238e-5
0.451, -8.280e-5
0.450, -8.334e-5
0.449, -8.381e-5
0.448, -8.384e-5
0.447, -8.443e-5
0.446, -8.482e-5
0.445, -8.516e-5
0.444, -8.549e-5
0.443, -8.563e-5
0.442, -8.589e-5
0.441, -8.597e-5
0.440, -8.597e-5
0.439, -8.609e-5
0.438, -8.615e-5
0.437, -8.602e-5
0.436, -8.603e-5
0.435, -8.628e-5
0.434, -8.584e-5
0.433, -8.571e-5
0.432, -8.538e-5
0.431, -8.524e-5
0.430, -8.510e-5
0.429, -8.469e-5
0.428, -8.450e-5
0.427, -8.413e-5
0.426, -8.378e-5
0.425, -8.343e-5
0.424, -8.301e-5
0.423, -8.258e-5
0.422, -8.214e-5
0.421, -8.165e-5
0.420, -8.125e-5
0.419, -8.083e-5
0.418, -8.031e-5
0.417, -7.989e-5
0.416, -7.930e-5
0.415, -7.879e-5
0.414, -7.826e-5
0.413, -7.768e-5
0.412, -7.720e-5
0.411, -7.664e-5
0.410, -7.551e-5
0.409, -7.515e-5
0.408, -7.470e-5
0.407, -7.425e-5
0.406, -7.368e-5
0.405, -7.310e-5
0.404, -7.255e-5
0.403, -7.201e-5
0.402, -7.143e-5
0.401, -7.084e-5
0.400, -7.026e-5
0.399, -6.969e-5
0.398, -6.912e-5
0.397, -6.842e-5
0.396, -6.793e-5
0.395, -6.736e-5
0.394, -6.678e-5
0.393, -6.622e-5
0.392, -6.567e-5
0.391, -6.511e-5
0.390, -6.452e-5
0.389, -6.398e-5
0.388, -6.345e-5
0.387, -6.289e-5
0.386, -6.232e-5
0.385, -6.179e-5
0.384, -6.135e-5
0.383, -6.077e-5
0.382, -6.021e-5
0.381, -5.968e-5
0.380, -5.917e-5
0.379, -5.867e-5
0.378, -5.814e-5
0.377, -5.762e-5
0.376, -5.712e-5
0.375, -5.664e-5
0.374, -5.616e-5
0.373, -5.566e-5
0.372, -5.518e-5
0.371, -5.467e-5
0.370, -5.422e-5
0.369, -5.377e-5
0.368, -5.331e-5
0.367, -5.286e-5
0.366, -5.241e-5
0.365, -5.197e-5
0.364, -5.153e-5
0.363, -5.112e-5
0.362, -5.069e-5
0.361, -5.027e-5
0.360, -4.985e-5
0.359, -4.944e-5
0.358, -4.903e-5
0.357, -4.863e-5
0.356, -4.825e-5
0.355, -4.785e-5
0.354, -4.747e-5
0.353, -4.709e-5
0.352, -4.671e-5
0.351, -4.634e-5
0.350, -4.598e-5
0.349, -4.561e-5
0.348, -4.527e-5
0.347, -4.492e-5
0.346, -4.455e-5
0.345, -4.421e-5
0.344, -4.389e-5
0.343, -4.356e-5
0.342, -4.323e-5
0.341, -4.290e-5
0.340, -4.258e-5
0.339, -4.227e-5
0.338, -4.196e-5
0.337, -4.165e-5
0.336, -4.134e-5
0.335, -4.104e-5
0.334, -4.075e-5
0.333, -4.047e-5
0.332, -4.019e-5
0.331, -3.989e-5
0.330, -3.961e-5
0.329, -3.933e-5
0.328, -3.906e-5
0.327, -3.878e-5
0.326, -3.851e-5
0.325, -3.825e-5
0.324, -3.799e-5
0.323, -3.773e-5
0.322, -3.748e-5
0.321, -3.723e-5
0.320, -3.697e-5
0.319, -3.673e-5
0.318, -3.650e-5
0.317, -3.626e-5
0.316, -3.603e-5
0.315, -3.580e-5
0.314, -3.555e-5
0.313, -3.534e-5
0.312, -3.512e-5
0.311, -3.489e-5
0.310, -3.468e-5
0.309, -3.447e-5
0.308, -3.426e-5
0.307, -3.405e-5
0.306, -3.383e-5
0.305, -3.362e-5
0.304, -3.342e-5
0.303, -3.322e-5
0.302, -3.302e-5
0.301, -3.282e-5
0.300, -3.264e-5
0.299, -3.245e-5
0.298, -3.225e-5
0.297, -3.206e-5
0.296, -3.188e-5
0.295, -3.169e-5
0.294, -3.151e-5
0.293, -3.133e-5
0.292, -3.115e-5
0.291, -3.098e-5
0.290, -3.080e-5
0.289, -3.063e-5
0.288, -3.046e-5
0.287, -3.029e-5
0.286, -3.012e-5
0.285, -2.996e-5
0.284, -2.980e-5
0.283, -2.964e-5
0.282, -2.949e-5
0.281, -2.932e-5
0.280, -2.918e-5
0.279, -2.901e-5
0.278, -2.886e-5
0.277, -2.871e-5
0.276, -2.857e-5
0.275, -2.842e-5
0.274, -2.827e-5
0.273, -2.813e-5
0.272, -2.798e-5
0.271, -2.784e-5
0.270, -2.770e-5
0.269, -2.755e-5
0.268, -2.742e-5
0.267, -2.729e-5
0.266, -2.715e-5
0.265, -2.701e-5
0.264, -2.689e-5
0.263, -2.676e-5
0.262, -2.662e-5
0.261, -2.649e-5
0.260, -2.637e-5
0.259, -2.624e-5
0.258, -2.611e-5
0.257, -2.599e-5
0.256, -2.586e-5
0.255, -2.575e-5
0.254, -2.562e-5
0.253, -2.550e-5
0.252, -2.539e-5
0.251, -2.527e-5
0.250, -2.516e-5
0.249, -2.504e-5
0.248, -2.493e-5
0.247, -2.482e-5
0.246, -2.470e-5
0.245, -2.459e-5
0.244, -2.448e-5
0.243, -2.437e-5
0.242, -2.426e-5
0.241, -2.416e-5
0.240, -2.405e-5
0.239, -2.395e-5
0.238, -2.384e-5
0.237, -2.374e-5
0.236, -2.364e-5
0.235, -2.353e-5
0.234, -2.342e-5
0.233, -2.333e-5
0.232, -2.323e-5
0.231, -2.314e-5
0.230, -2.303e-5
0.229, -2.293e-5
0.228, -2.284e-5
0.227, -2.275e-5
0.226, -2.264e-5
0.225, -2.255e-5
0.224, -2.246e-5
0.223, -2.237e-5
0.222, -2.228e-5
0.221, -2.218e-5
0.220, -2.210e-5
0.219, -2.200e-5
0.218, -2.191e-5
0.217, -2.182e-5
0.216, -2.174e-5
0.215, -2.165e-5
0.214, -2.156e-5
0.213, -2.148e-5
0.212, -2.140e-5
0.211, -2.132e-5
0.210, -2.123e-5
0.209, -2.115e-5
0.208, -2.107e-5
0.207, -2.098e-5
0.206, -2.090e-5
0.205, -2.080e-5
0.204, -2.073e-5
0.203, -2.065e-5
0.202, -2.057e-5
0.201, -2.049e-5
0.200, -2.042e-5
0.199, -2.034e-5
0.198, -2.027e-5
0.197, -2.018e-5
0.196, -2.011e-5
0.195, -2.004e-5
0.194, -1.996e-5
0.193, -1.989e-5
0.192, -1.981e-5
0.191, -1.974e-5
0.190, -1.967e-5
0.189, -1.960e-5
0.188, -1.953e-5
0.187, -1.946e-5
0.186, -1.938e-5
0.185, -1.932e-5
0.184, -1.924e-5
0.183, -1.917e-5
0.182, -1.910e-5
0.181, -1.903e-5
0.180, -1.898e-5
0.179, -1.891e-5
0.178, -1.883e-5
0.177, -1.876e-5
0.176, -1.870e-5
0.175, -1.863e-5
0.174, -1.856e-5
0.173, -1.849e-5
0.172, -1.844e-5
0.171, -1.837e-5
0.170, -1.830e-5
0.169, -1.824e-5
0.168, -1.817e-5
0.167, -1.810e-5
0.166, -1.804e-5
0.165, -1.798e-5
0.164, -1.792e-5
0.163, -1.786e-5
0.162, -1.779e-5
0.161, -1.774e-5
0.160, -1.768e-5
0.159, -1.762e-5
0.158, -1.756e-5
0.157, -1.750e-5
0.156, -1.744e-5
0.155, -1.738e-5
0.154, -1.732e-5
0.153, -1.726e-5
0.152, -1.721e-5
0.151, -1.715e-5
0.150, -1.709e-5
0.149, -1.703e-5
0.148, -1.698e-5
0.147, -1.692e-5
0.146, -1.686e-5
0.145, -1.681e-5
0.144, -1.675e-5
0.143, -1.669e-5
0.142, -1.664e-5
0.141, -1.658e-5
0.140, -1.653e-5
0.139, -1.648e-5
0.138, -1.642e-5
0.137, -1.637e-5
0.136, -1.632e-5
0.135, -1.626e-5
0.134, -1.621e-5
0.133, -1.616e-5
0.132, -1.611e-5
0.131, -1.606e-5
0.130, -1.601e-5
0.129, -1.595e-5
0.128, -1.591e-5
0.127, -1.585e-5
0.126, -1.580e-5
0.125, -1.575e-5
0.124, -1.570e-5
0.123, -1.565e-5
0.122, -1.560e-5
0.121, -1.555e-5
0.120, -1.550e-5
0.119, -1.545e-5
0.118, -1.541e-5
0.117, -1.536e-5
0.116, -1.531e-5
0.115, -1.526e-5
0.114, -1.521e-5
0.113, -1.517e-5
0.112, -1.512e-5
0.111, -1.508e-5
0.110, -1.503e-5
0.109, -1.499e-5
0.108, -1.494e-5
0.107, -1.489e-5
0.106, -1.485e-5
0.105, -1.480e-5
0.104, -1.476e-5
0.103, -1.472e-5
0.102, -1.467e-5
0.101, -1.463e-5
0.100, -1.459e-5
0.099, -1.454e-5
0.098, -1.449e-5
0.097, -1.446e-5
0.096, -1.441e-5
0.095, -1.437e-5
0.094, -1.433e-5
0.093, -1.428e-5
0.092, -1.425e-5
0.091, -1.420e-5
0.090, -1.415e-5
0.089, -1.412e-5
0.088, -1.408e-5
0.087, -1.404e-5
0.086, -1.399e-5
0.085, -1.396e-5
0.084, -1.392e-5
0.083, -1.388e-5
0.082, -1.383e-5
0.081, -1.380e-5
0.080, -1.376e-5
0.079, -1.372e-5
0.078, -1.368e-5
0.077, -1.365e-5
0.076, -1.361e-5
0.075, -1.357e-5
0.074, -1.353e-5
0.073, -1.350e-5
0.072, -1.346e-5
0.071, -1.342e-5
0.070, -1.338e-5
0.069, -1.334e-5
0.068, -1.331e-5
0.067, -1.327e-5
0.066, -1.323e-5
0.065, -1.320e-5
0.064, -1.315e-5
0.063, -1.313e-5
0.062, -1.309e-5
0.061, -1.305e-5
0.060, -1.302e-5
0.059, -1.299e-5
0.058, -1.295e-5
0.057, -1.292e-5
0.056, -1.289e-5
0.055, -1.285e-5
0.054, -1.282e-5
0.053, -1.278e-5
0.052, -1.275e-5
0.051, -1.271e-5
0.050, -1.268e-5
0.049, -1.265e-5
0.048, -1.261e-5
0.047, -1.259e-5
0.046, -1.254e-5
0.045, -1.251e-5
0.044, -1.249e-5
0.043, -1.245e-5
0.042, -1.241e-5
0.041, -1.238e-5
0.040, -1.236e-5
0.039, -1.231e-5
0.038, -1.229e-5
0.037, -1.226e-5
0.036, -1.223e-5
0.035, -1.220e-5
0.034, -1.217e-5
0.033, -1.214e-5
0.032, -1.211e-5
0.031, -1.208e-5
0.030, -1.205e-5
0.029, -1.202e-5
0.028, -1.199e-5
0.027, -1.196e-5
0.026, -1.193e-5
0.025, -1.190e-5
0.024, -1.187e-5
0.023, -1.184e-5
0.022, -1.180e-5
0.021, -1.178e-5
0.020, -1.175e-5
0.019, -1.172e-5
0.018, -1.169e-5
0.017, -1.166e-5
0.016, -1.163e-5
0.015, -1.161e-5
0.014, -1.158e-5
0.013, -1.154e-5
0.012, -1.153e-5
0.011, -1.150e-5
0.010, -1.146e-5
0.009, -1.144e-5
0.008, -1.141e-5
0.007, -1.138e-5
0.006, -1.136e-5
0.005, -1.133e-5
0.004, -1.131e-5
0.003, -1.128e-5
0.002, -1.126e-5
0.001, -1.123e-5
