May 7, 2026   16:22:24
Cyclic Voltammetry
File: mecn_co2_0.1mtbapf6_3mmfc_1mmfe-tpypy2me_100mmphoh_-1.2_to_1v_1
Data Source:  Experiment
Instrument Model:  CHI660D
Header: 
Note: 

Init E (V) = 0
High E (V) = 1
Low E (V) = -1.2
Final E (V) = 0
Init P/N = N
Scan Rate (V/s) = 0.1
Segment = 3
Sample Interval (V) = 0.001
Quiet Time (sec) = 2
Sensitivity (A/V) = 1e-4
Comp R (ohm) = 101.6

Results:

Channel 1:
Segment 1:
Ep = -1.007V
ip = -5.653e-5A
Ah = -5.500e-5C

Segment 2:
Ep = -0.895V
ip = 4.901e-5A
Ah = 4.718e-5C

Ep = 0.495V
ip = 1.684e-4A
Ah = 1.044e-4C

Segment 3:
Ep = 0.435V
ip = -1.752e-4A
Ah = -1.114e-4C

Potential/V, Current/A

0.000, -3.814e-6
-0.001, -3.885e-6
-0.002, -3.911e-6
-0.003, -3.929e-6
-0.004, -3.943e-6
-0.005, -3.957e-6
-0.006, -3.967e-6
-0.007, -3.979e-6
-0.008, -3.987e-6
-0.009, -3.993e-6
-0.010, -3.996e-6
-0.011, -4.009e-6
-0.012, -4.008e-6
-0.013, -4.017e-6
-0.014, -4.020e-6
-0.015, -4.026e-6
-0.016, -4.033e-6
-0.017, -4.037e-6
-0.018, -4.041e-6
-0.019, -4.043e-6
-0.020, -4.049e-6
-0.021, -4.056e-6
-0.022, -4.054e-6
-0.023, -4.058e-6
-0.024, -4.065e-6
-0.025, -4.070e-6
-0.026, -4.071e-6
-0.027, -4.070e-6
-0.028, -4.076e-6
-0.029, -4.078e-6
-0.030, -4.079e-6
-0.031, -4.083e-6
-0.032, -4.081e-6
-0.033, -4.089e-6
-0.034, -4.090e-6
-0.035, -4.093e-6
-0.036, -4.096e-6
-0.037, -4.097e-6
-0.038, -4.095e-6
-0.039, -4.104e-6
-0.040, -4.104e-6
-0.041, -4.108e-6
-0.042, -4.109e-6
-0.043, -4.111e-6
-0.044, -4.119e-6
-0.045, -4.116e-6
-0.046, -4.118e-6
-0.047, -4.122e-6
-0.048, -4.127e-6
-0.049, -4.128e-6
-0.050, -4.128e-6
-0.051, -4.128e-6
-0.052, -4.136e-6
-0.053, -4.137e-6
-0.054, -4.139e-6
-0.055, -4.143e-6
-0.056, -4.150e-6
-0.057, -4.147e-6
-0.058, -4.149e-6
-0.059, -4.156e-6
-0.060, -4.154e-6
-0.061, -4.160e-6
-0.062, -4.161e-6
-0.063, -4.166e-6
-0.064, -4.161e-6
-0.065, -4.166e-6
-0.066, -4.171e-6
-0.067, -4.174e-6
-0.068, -4.179e-6
-0.069, -4.177e-6
-0.070, -4.180e-6
-0.071, -4.186e-6
-0.072, -4.188e-6
-0.073, -4.189e-6
-0.074, -4.192e-6
-0.075, -4.194e-6
-0.076, -4.206e-6
-0.077, -4.204e-6
-0.078, -4.203e-6
-0.079, -4.209e-6
-0.080, -4.210e-6
-0.081, -4.216e-6
-0.082, -4.213e-6
-0.083, -4.213e-6
-0.084, -4.222e-6
-0.085, -4.222e-6
-0.086, -4.224e-6
-0.087, -4.224e-6
-0.088, -4.229e-6
-0.089, -4.227e-6
-0.090, -4.230e-6
-0.091, -4.235e-6
-0.092, -4.239e-6
-0.093, -4.240e-6
-0.094, -4.243e-6
-0.095, -4.244e-6
-0.096, -4.248e-6
-0.097, -4.248e-6
-0.098, -4.254e-6
-0.099, -4.254e-6
-0.100, -4.257e-6
-0.101, -4.262e-6
-0.102, -4.265e-6
-0.103, -4.268e-6
-0.104, -4.272e-6
-0.105, -4.265e-6
-0.106, -4.273e-6
-0.107, -4.273e-6
-0.108, -4.280e-6
-0.109, -4.281e-6
-0.110, -4.281e-6
-0.111, -4.288e-6
-0.112, -4.289e-6
-0.113, -4.291e-6
-0.114, -4.292e-6
-0.115, -4.288e-6
-0.116, -4.304e-6
-0.117, -4.303e-6
-0.118, -4.301e-6
-0.119, -4.306e-6
-0.120, -4.311e-6
-0.121, -4.316e-6
-0.122, -4.315e-6
-0.123, -4.316e-6
-0.124, -4.321e-6
-0.125, -4.324e-6
-0.126, -4.326e-6
-0.127, -4.328e-6
-0.128, -4.341e-6
-0.129, -4.336e-6
-0.130, -4.339e-6
-0.131, -4.343e-6
-0.132, -4.344e-6
-0.133, -4.347e-6
-0.134, -4.348e-6
-0.135, -4.349e-6
-0.136, -4.355e-6
-0.137, -4.357e-6
-0.138, -4.359e-6
-0.139, -4.362e-6
-0.140, -4.363e-6
-0.141, -4.367e-6
-0.142, -4.365e-6
-0.143, -4.373e-6
-0.144, -4.377e-6
-0.145, -4.376e-6
-0.146, -4.380e-6
-0.147, -4.384e-6
-0.148, -4.390e-6
-0.149, -4.391e-6
-0.150, -4.389e-6
-0.151, -4.393e-6
-0.152, -4.398e-6
-0.153, -4.403e-6
-0.154, -4.401e-6
-0.155, -4.401e-6
-0.156, -4.414e-6
-0.157, -4.416e-6
-0.158, -4.414e-6
-0.159, -4.413e-6
-0.160, -4.417e-6
-0.161, -4.428e-6
-0.162, -4.426e-6
-0.163, -4.429e-6
-0.164, -4.431e-6
-0.165, -4.434e-6
-0.166, -4.434e-6
-0.167, -4.441e-6
-0.168, -4.443e-6
-0.169, -4.446e-6
-0.170, -4.449e-6
-0.171, -4.450e-6
-0.172, -4.459e-6
-0.173, -4.457e-6
-0.174, -4.457e-6
-0.175, -4.464e-6
-0.176, -4.469e-6
-0.177, -4.471e-6
-0.178, -4.472e-6
-0.179, -4.481e-6
-0.180, -4.481e-6
-0.181, -4.485e-6
-0.182, -4.480e-6
-0.183, -4.487e-6
-0.184, -4.492e-6
-0.185, -4.494e-6
-0.186, -4.498e-6
-0.187, -4.495e-6
-0.188, -4.501e-6
-0.189, -4.505e-6
-0.190, -4.504e-6
-0.191, -4.514e-6
-0.192, -4.506e-6
-0.193, -4.518e-6
-0.194, -4.516e-6
-0.195, -4.519e-6
-0.196, -4.526e-6
-0.197, -4.528e-6
-0.198, -4.533e-6
-0.199, -4.536e-6
-0.200, -4.538e-6
-0.201, -4.544e-6
-0.202, -4.546e-6
-0.203, -4.546e-6
-0.204, -4.545e-6
-0.205, -4.544e-6
-0.206, -4.555e-6
-0.207, -4.560e-6
-0.208, -4.566e-6
-0.209, -4.564e-6
-0.210, -4.570e-6
-0.211, -4.576e-6
-0.212, -4.583e-6
-0.213, -4.583e-6
-0.214, -4.584e-6
-0.215, -4.588e-6
-0.216, -4.596e-6
-0.217, -4.596e-6
-0.218, -4.598e-6
-0.219, -4.601e-6
-0.220, -4.610e-6
-0.221, -4.615e-6
-0.222, -4.618e-6
-0.223, -4.618e-6
-0.224, -4.624e-6
-0.225, -4.626e-6
-0.226, -4.633e-6
-0.227, -4.631e-6
-0.228, -4.642e-6
-0.229, -4.644e-6
-0.230, -4.654e-6
-0.231, -4.658e-6
-0.232, -4.656e-6
-0.233, -4.663e-6
-0.234, -4.672e-6
-0.235, -4.666e-6
-0.236, -4.680e-6
-0.237, -4.680e-6
-0.238, -4.683e-6
-0.239, -4.690e-6
-0.240, -4.696e-6
-0.241, -4.698e-6
-0.242, -4.698e-6
-0.243, -4.702e-6
-0.244, -4.712e-6
-0.245, -4.717e-6
-0.246, -4.718e-6
-0.247, -4.722e-6
-0.248, -4.725e-6
-0.249, -4.732e-6
-0.250, -4.737e-6
-0.251, -4.738e-6
-0.252, -4.744e-6
-0.253, -4.751e-6
-0.254, -4.751e-6
-0.255, -4.757e-6
-0.256, -4.760e-6
-0.257, -4.765e-6
-0.258, -4.772e-6
-0.259, -4.775e-6
-0.260, -4.784e-6
-0.261, -4.786e-6
-0.262, -4.785e-6
-0.263, -4.797e-6
-0.264, -4.799e-6
-0.265, -4.802e-6
-0.266, -4.808e-6
-0.267, -4.811e-6
-0.268, -4.818e-6
-0.269, -4.823e-6
-0.270, -4.825e-6
-0.271, -4.834e-6
-0.272, -4.840e-6
-0.273, -4.843e-6
-0.274, -4.846e-6
-0.275, -4.847e-6
-0.276, -4.862e-6
-0.277, -4.859e-6
-0.278, -4.865e-6
-0.279, -4.872e-6
-0.280, -4.876e-6
-0.281, -4.895e-6
-0.282, -4.887e-6
-0.283, -4.891e-6
-0.284, -4.899e-6
-0.285, -4.902e-6
-0.286, -4.907e-6
-0.287, -4.908e-6
-0.288, -4.919e-6
-0.289, -4.920e-6
-0.290, -4.927e-6
-0.291, -4.934e-6
-0.292, -4.939e-6
-0.293, -4.944e-6
-0.294, -4.939e-6
-0.295, -4.952e-6
-0.296, -4.960e-6
-0.297, -4.959e-6
-0.298, -4.964e-6
-0.299, -4.972e-6
-0.300, -4.978e-6
-0.301, -4.981e-6
-0.302, -4.984e-6
-0.303, -4.989e-6
-0.304, -4.995e-6
-0.305, -4.996e-6
-0.306, -5.004e-6
-0.307, -5.013e-6
-0.308, -5.018e-6
-0.309, -5.017e-6
-0.310, -5.021e-6
-0.311, -5.030e-6
-0.312, -5.031e-6
-0.313, -5.034e-6
-0.314, -5.041e-6
-0.315, -5.039e-6
-0.316, -5.052e-6
-0.317, -5.051e-6
-0.318, -5.057e-6
-0.319, -5.061e-6
-0.320, -5.057e-6
-0.321, -5.072e-6
-0.322, -5.071e-6
-0.323, -5.077e-6
-0.324, -5.081e-6
-0.325, -5.089e-6
-0.326, -5.092e-6
-0.327, -5.094e-6
-0.328, -5.103e-6
-0.329, -5.103e-6
-0.330, -5.109e-6
-0.331, -5.115e-6
-0.332, -5.123e-6
-0.333, -5.125e-6
-0.334, -5.127e-6
-0.335, -5.134e-6
-0.336, -5.139e-6
-0.337, -5.139e-6
-0.338, -5.146e-6
-0.339, -5.146e-6
-0.340, -5.158e-6
-0.341, -5.159e-6
-0.342, -5.160e-6
-0.343, -5.168e-6
-0.344, -5.174e-6
-0.345, -5.172e-6
-0.346, -5.179e-6
-0.347, -5.181e-6
-0.348, -5.192e-6
-0.349, -5.193e-6
-0.350, -5.200e-6
-0.351, -5.202e-6
-0.352, -5.206e-6
-0.353, -5.213e-6
-0.354, -5.214e-6
-0.355, -5.221e-6
-0.356, -5.224e-6
-0.357, -5.225e-6
-0.358, -5.232e-6
-0.359, -5.236e-6
-0.360, -5.241e-6
-0.361, -5.243e-6
-0.362, -5.248e-6
-0.363, -5.253e-6
-0.364, -5.261e-6
-0.365, -5.261e-6
-0.366, -5.264e-6
-0.367, -5.273e-6
-0.368, -5.280e-6
-0.369, -5.280e-6
-0.370, -5.287e-6
-0.371, -5.282e-6
-0.372, -5.297e-6
-0.373, -5.300e-6
-0.374, -5.303e-6
-0.375, -5.310e-6
-0.376, -5.316e-6
-0.377, -5.318e-6
-0.378, -5.322e-6
-0.379, -5.326e-6
-0.380, -5.338e-6
-0.381, -5.343e-6
-0.382, -5.341e-6
-0.383, -5.353e-6
-0.384, -5.363e-6
-0.385, -5.362e-6
-0.386, -5.369e-6
-0.387, -5.367e-6
-0.388, -5.377e-6
-0.389, -5.383e-6
-0.390, -5.382e-6
-0.391, -5.394e-6
-0.392, -5.394e-6
-0.393, -5.404e-6
-0.394, -5.404e-6
-0.395, -5.414e-6
-0.396, -5.417e-6
-0.397, -5.418e-6
-0.398, -5.426e-6
-0.399, -5.435e-6
-0.400, -5.440e-6
-0.401, -5.444e-6
-0.402, -5.451e-6
-0.403, -5.455e-6
-0.404, -5.464e-6
-0.405, -5.468e-6
-0.406, -5.472e-6
-0.407, -5.478e-6
-0.408, -5.486e-6
-0.409, -5.470e-6
-0.410, -5.486e-6
-0.411, -5.495e-6
-0.412, -5.505e-6
-0.413, -5.510e-6
-0.414, -5.517e-6
-0.415, -5.522e-6
-0.416, -5.531e-6
-0.417, -5.534e-6
-0.418, -5.545e-6
-0.419, -5.544e-6
-0.420, -5.553e-6
-0.421, -5.560e-6
-0.422, -5.559e-6
-0.423, -5.572e-6
-0.424, -5.581e-6
-0.425, -5.585e-6
-0.426, -5.593e-6
-0.427, -5.597e-6
-0.428, -5.608e-6
-0.429, -5.612e-6
-0.430, -5.615e-6
-0.431, -5.629e-6
-0.432, -5.634e-6
-0.433, -5.641e-6
-0.434, -5.646e-6
-0.435, -5.664e-6
-0.436, -5.666e-6
-0.437, -5.669e-6
-0.438, -5.677e-6
-0.439, -5.685e-6
-0.440, -5.691e-6
-0.441, -5.701e-6
-0.442, -5.702e-6
-0.443, -5.712e-6
-0.444, -5.723e-6
-0.445, -5.729e-6
-0.446, -5.734e-6
-0.447, -5.741e-6
-0.448, -5.743e-6
-0.449, -5.755e-6
-0.450, -5.760e-6
-0.451, -5.769e-6
-0.452, -5.775e-6
-0.453, -5.790e-6
-0.454, -5.792e-6
-0.455, -5.803e-6
-0.456, -5.810e-6
-0.457, -5.816e-6
-0.458, -5.825e-6
-0.459, -5.832e-6
-0.460, -5.843e-6
-0.461, -5.846e-6
-0.462, -5.852e-6
-0.463, -5.865e-6
-0.464, -5.873e-6
-0.465, -5.881e-6
-0.466, -5.888e-6
-0.467, -5.890e-6
-0.468, -5.906e-6
-0.469, -5.913e-6
-0.470, -5.917e-6
-0.471, -5.928e-6
-0.472, -5.934e-6
-0.473, -5.943e-6
-0.474, -5.949e-6
-0.475, -5.957e-6
-0.476, -5.967e-6
-0.477, -5.975e-6
-0.478, -5.987e-6
-0.479, -5.992e-6
-0.480, -5.999e-6
-0.481, -6.012e-6
-0.482, -6.016e-6
-0.483, -6.031e-6
-0.484, -6.033e-6
-0.485, -6.046e-6
-0.486, -6.061e-6
-0.487, -6.064e-6
-0.488, -6.073e-6
-0.489, -6.078e-6
-0.490, -6.091e-6
-0.491, -6.099e-6
-0.492, -6.107e-6
-0.493, -6.116e-6
-0.494, -6.121e-6
-0.495, -6.135e-6
-0.496, -6.142e-6
-0.497, -6.150e-6
-0.498, -6.158e-6
-0.499, -6.161e-6
-0.500, -6.177e-6
-0.501, -6.184e-6
-0.502, -6.186e-6
-0.503, -6.199e-6
-0.504, -6.205e-6
-0.505, -6.215e-6
-0.506, -6.217e-6
-0.507, -6.223e-6
-0.508, -6.240e-6
-0.509, -6.246e-6
-0.510, -6.252e-6
-0.511, -6.259e-6
-0.512, -6.275e-6
-0.513, -6.278e-6
-0.514, -6.287e-6
-0.515, -6.291e-6
-0.516, -6.299e-6
-0.517, -6.305e-6
-0.518, -6.315e-6
-0.519, -6.317e-6
-0.520, -6.328e-6
-0.521, -6.330e-6
-0.522, -6.338e-6
-0.523, -6.350e-6
-0.524, -6.351e-6
-0.525, -6.359e-6
-0.526, -6.364e-6
-0.527, -6.373e-6
-0.528, -6.385e-6
-0.529, -6.385e-6
-0.530, -6.395e-6
-0.531, -6.399e-6
-0.532, -6.409e-6
-0.533, -6.416e-6
-0.534, -6.413e-6
-0.535, -6.425e-6
-0.536, -6.429e-6
-0.537, -6.444e-6
-0.538, -6.445e-6
-0.539, -6.445e-6
-0.540, -6.458e-6
-0.541, -6.459e-6
-0.542, -6.465e-6
-0.543, -6.474e-6
-0.544, -6.475e-6
-0.545, -6.482e-6
-0.546, -6.485e-6
-0.547, -6.490e-6
-0.548, -6.499e-6
-0.549, -6.503e-6
-0.550, -6.501e-6
-0.551, -6.511e-6
-0.552, -6.517e-6
-0.553, -6.524e-6
-0.554, -6.528e-6
-0.555, -6.532e-6
-0.556, -6.534e-6
-0.557, -6.544e-6
-0.558, -6.548e-6
-0.559, -6.550e-6
-0.560, -6.559e-6
-0.561, -6.560e-6
-0.562, -6.562e-6
-0.563, -6.571e-6
-0.564, -6.575e-6
-0.565, -6.581e-6
-0.566, -6.582e-6
-0.567, -6.587e-6
-0.568, -6.597e-6
-0.569, -6.597e-6
-0.570, -6.601e-6
-0.571, -6.607e-6
-0.572, -6.613e-6
-0.573, -6.622e-6
-0.574, -6.622e-6
-0.575, -6.627e-6
-0.576, -6.622e-6
-0.577, -6.633e-6
-0.578, -6.641e-6
-0.579, -6.644e-6
-0.580, -6.652e-6
-0.581, -6.655e-6
-0.582, -6.656e-6
-0.583, -6.665e-6
-0.584, -6.665e-6
-0.585, -6.672e-6
-0.586, -6.677e-6
-0.587, -6.679e-6
-0.588, -6.691e-6
-0.589, -6.691e-6
-0.590, -6.692e-6
-0.591, -6.698e-6
-0.592, -6.701e-6
-0.593, -6.705e-6
-0.594, -6.709e-6
-0.595, -6.715e-6
-0.596, -6.722e-6
-0.597, -6.723e-6
-0.598, -6.728e-6
-0.599, -6.731e-6
-0.600, -6.741e-6
-0.601, -6.738e-6
-0.602, -6.744e-6
-0.603, -6.749e-6
-0.604, -6.756e-6
-0.605, -6.765e-6
-0.606, -6.764e-6
-0.607, -6.771e-6
-0.608, -6.774e-6
-0.609, -6.780e-6
-0.610, -6.786e-6
-0.611, -6.785e-6
-0.612, -6.794e-6
-0.613, -6.804e-6
-0.614, -6.787e-6
-0.615, -6.805e-6
-0.616, -6.813e-6
-0.617, -6.815e-6
-0.618, -6.827e-6
-0.619, -6.826e-6
-0.620, -6.836e-6
-0.621, -6.838e-6
-0.622, -6.839e-6
-0.623, -6.853e-6
-0.624, -6.851e-6
-0.625, -6.861e-6
-0.626, -6.867e-6
-0.627, -6.865e-6
-0.628, -6.882e-6
-0.629, -6.882e-6
-0.630, -6.885e-6
-0.631, -6.894e-6
-0.632, -6.902e-6
-0.633, -6.910e-6
-0.634, -6.912e-6
-0.635, -6.922e-6
-0.636, -6.929e-6
-0.637, -6.935e-6
-0.638, -6.938e-6
-0.639, -6.942e-6
-0.640, -6.961e-6
-0.641, -6.958e-6
-0.642, -6.967e-6
-0.643, -6.970e-6
-0.644, -6.977e-6
-0.645, -6.986e-6
-0.646, -6.988e-6
-0.647, -6.999e-6
-0.648, -7.005e-6
-0.649, -7.013e-6
-0.650, -7.021e-6
-0.651, -7.025e-6
-0.652, -7.032e-6
-0.653, -7.039e-6
-0.654, -7.043e-6
-0.655, -7.056e-6
-0.656, -7.063e-6
-0.657, -7.070e-6
-0.658, -7.078e-6
-0.659, -7.081e-6
-0.660, -7.099e-6
-0.661, -7.101e-6
-0.662, -7.107e-6
-0.663, -7.122e-6
-0.664, -7.129e-6
-0.665, -7.134e-6
-0.666, -7.139e-6
-0.667, -7.153e-6
-0.668, -7.163e-6
-0.669, -7.172e-6
-0.670, -7.177e-6
-0.671, -7.183e-6
-0.672, -7.194e-6
-0.673, -7.204e-6
-0.674, -7.213e-6
-0.675, -7.220e-6
-0.676, -7.231e-6
-0.677, -7.241e-6
-0.678, -7.244e-6
-0.679, -7.255e-6
-0.680, -7.269e-6
-0.681, -7.274e-6
-0.682, -7.290e-6
-0.683, -7.297e-6
-0.684, -7.303e-6
-0.685, -7.314e-6
-0.686, -7.322e-6
-0.687, -7.336e-6
-0.688, -7.345e-6
-0.689, -7.355e-6
-0.690, -7.365e-6
-0.691, -7.378e-6
-0.692, -7.392e-6
-0.693, -7.397e-6
-0.694, -7.400e-6
-0.695, -7.416e-6
-0.696, -7.425e-6
-0.697, -7.441e-6
-0.698, -7.442e-6
-0.699, -7.450e-6
-0.700, -7.470e-6
-0.701, -7.477e-6
-0.702, -7.489e-6
-0.703, -7.499e-6
-0.704, -7.496e-6
-0.705, -7.515e-6
-0.706, -7.530e-6
-0.707, -7.535e-6
-0.708, -7.547e-6
-0.709, -7.556e-6
-0.710, -7.566e-6
-0.711, -7.578e-6
-0.712, -7.591e-6
-0.713, -7.599e-6
-0.714, -7.608e-6
-0.715, -7.626e-6
-0.716, -7.640e-6
-0.717, -7.649e-6
-0.718, -7.653e-6
-0.719, -7.663e-6
-0.720, -7.674e-6
-0.721, -7.684e-6
-0.722, -7.692e-6
-0.723, -7.704e-6
-0.724, -7.713e-6
-0.725, -7.724e-6
-0.726, -7.730e-6
-0.727, -7.745e-6
-0.728, -7.758e-6
-0.729, -7.754e-6
-0.730, -7.773e-6
-0.731, -7.781e-6
-0.732, -7.799e-6
-0.733, -7.804e-6
-0.734, -7.812e-6
-0.735, -7.826e-6
-0.736, -7.837e-6
-0.737, -7.850e-6
-0.738, -7.862e-6
-0.739, -7.868e-6
-0.740, -7.887e-6
-0.741, -7.898e-6
-0.742, -7.914e-6
-0.743, -7.925e-6
-0.744, -7.929e-6
-0.745, -7.942e-6
-0.746, -7.955e-6
-0.747, -7.966e-6
-0.748, -7.979e-6
-0.749, -7.987e-6
-0.750, -7.995e-6
-0.751, -8.017e-6
-0.752, -8.028e-6
-0.753, -8.038e-6
-0.754, -8.048e-6
-0.755, -8.058e-6
-0.756, -8.080e-6
-0.757, -8.096e-6
-0.758, -8.104e-6
-0.759, -8.119e-6
-0.760, -8.144e-6
-0.761, -8.150e-6
-0.762, -8.168e-6
-0.763, -8.177e-6
-0.764, -8.193e-6
-0.765, -8.222e-6
-0.766, -8.228e-6
-0.767, -8.245e-6
-0.768, -8.262e-6
-0.769, -8.283e-6
-0.770, -8.297e-6
-0.771, -8.313e-6
-0.772, -8.339e-6
-0.773, -8.356e-6
-0.774, -8.374e-6
-0.775, -8.397e-6
-0.776, -8.413e-6
-0.777, -8.439e-6
-0.778, -8.460e-6
-0.779, -8.478e-6
-0.780, -8.504e-6
-0.781, -8.520e-6
-0.782, -8.550e-6
-0.783, -8.578e-6
-0.784, -8.603e-6
-0.785, -8.632e-6
-0.786, -8.653e-6
-0.787, -8.680e-6
-0.788, -8.715e-6
-0.789, -8.742e-6
-0.790, -8.772e-6
-0.791, -8.801e-6
-0.792, -8.836e-6
-0.793, -8.887e-6
-0.794, -8.907e-6
-0.795, -8.942e-6
-0.796, -8.978e-6
-0.797, -9.024e-6
-0.798, -9.048e-6
-0.799, -9.091e-6
-0.800, -9.140e-6
-0.801, -9.179e-6
-0.802, -9.230e-6
-0.803, -9.265e-6
-0.804, -9.313e-6
-0.805, -9.369e-6
-0.806, -9.398e-6
-0.807, -9.466e-6
-0.808, -9.515e-6
-0.809, -9.572e-6
-0.810, -9.637e-6
-0.811, -9.695e-6
-0.812, -9.762e-6
-0.813, -9.820e-6
-0.814, -9.882e-6
-0.815, -9.961e-6
-0.816, -1.002e-5
-0.817, -1.010e-5
-0.818, -1.017e-5
-0.819, -1.021e-5
-0.820, -1.034e-5
-0.821, -1.041e-5
-0.822, -1.050e-5
-0.823, -1.058e-5
-0.824, -1.069e-5
-0.825, -1.079e-5
-0.826, -1.088e-5
-0.827, -1.099e-5
-0.828, -1.111e-5
-0.829, -1.121e-5
-0.830, -1.133e-5
-0.831, -1.145e-5
-0.832, -1.154e-5
-0.833, -1.168e-5
-0.834, -1.182e-5
-0.835, -1.195e-5
-0.836, -1.210e-5
-0.837, -1.226e-5
-0.838, -1.238e-5
-0.839, -1.255e-5
-0.840, -1.271e-5
-0.841, -1.288e-5
-0.842, -1.304e-5
-0.843, -1.319e-5
-0.844, -1.340e-5
-0.845, -1.362e-5
-0.846, -1.377e-5
-0.847, -1.398e-5
-0.848, -1.415e-5
-0.849, -1.437e-5
-0.850, -1.460e-5
-0.851, -1.478e-5
-0.852, -1.504e-5
-0.853, -1.524e-5
-0.854, -1.547e-5
-0.855, -1.573e-5
-0.856, -1.598e-5
-0.857, -1.619e-5
-0.858, -1.645e-5
-0.859, -1.671e-5
-0.860, -1.702e-5
-0.861, -1.728e-5
-0.862, -1.756e-5
-0.863, -1.783e-5
-0.864, -1.814e-5
-0.865, -1.848e-5
-0.866, -1.880e-5
-0.867, -1.912e-5
-0.868, -1.944e-5
-0.869, -1.979e-5
-0.870, -2.012e-5
-0.871, -2.046e-5
-0.872, -2.079e-5
-0.873, -2.117e-5
-0.874, -2.156e-5
-0.875, -2.194e-5
-0.876, -2.233e-5
-0.877, -2.274e-5
-0.878, -2.312e-5
-0.879, -2.356e-5
-0.880, -2.398e-5
-0.881, -2.443e-5
-0.882, -2.485e-5
-0.883, -2.522e-5
-0.884, -2.571e-5
-0.885, -2.618e-5
-0.886, -2.661e-5
-0.887, -2.709e-5
-0.888, -2.756e-5
-0.889, -2.810e-5
-0.890, -2.858e-5
-0.891, -2.905e-5
-0.892, -2.959e-5
-0.893, -3.008e-5
-0.894, -3.061e-5
-0.895, -3.112e-5
-0.896, -3.174e-5
-0.897, -3.226e-5
-0.898, -3.275e-5
-0.899, -3.326e-5
-0.900, -3.379e-5
-0.901, -3.432e-5
-0.902, -3.480e-5
-0.903, -3.538e-5
-0.904, -3.588e-5
-0.905, -3.643e-5
-0.906, -3.695e-5
-0.907, -3.742e-5
-0.908, -3.794e-5
-0.909, -3.840e-5
-0.910, -3.900e-5
-0.911, -3.950e-5
-0.912, -4.003e-5
-0.913, -4.058e-5
-0.914, -4.105e-5
-0.915, -4.153e-5
-0.916, -4.204e-5
-0.917, -4.258e-5
-0.918, -4.304e-5
-0.919, -4.354e-5
-0.920, -4.404e-5
-0.921, -4.452e-5
-0.922, -4.508e-5
-0.923, -4.542e-5
-0.924, -4.593e-5
-0.925, -4.640e-5
-0.926, -4.673e-5
-0.927, -4.723e-5
-0.928, -4.755e-5
-0.929, -4.810e-5
-0.930, -4.842e-5
-0.931, -4.882e-5
-0.932, -4.927e-5
-0.933, -4.964e-5
-0.934, -4.987e-5
-0.935, -5.034e-5
-0.936, -5.078e-5
-0.937, -5.108e-5
-0.938, -5.148e-5
-0.939, -5.183e-5
-0.940, -5.222e-5
-0.941, -5.251e-5
-0.942, -5.291e-5
-0.943, -5.318e-5
-0.944, -5.356e-5
-0.945, -5.394e-5
-0.946, -5.420e-5
-0.947, -5.473e-5
-0.948, -5.502e-5
-0.949, -5.531e-5
-0.950, -5.567e-5
-0.951, -5.602e-5
-0.952, -5.634e-5
-0.953, -5.658e-5
-0.954, -5.688e-5
-0.955, -5.721e-5
-0.956, -5.751e-5
-0.957, -5.785e-5
-0.958, -5.811e-5
-0.959, -5.843e-5
-0.960, -5.860e-5
-0.961, -5.899e-5
-0.962, -5.932e-5
-0.963, -5.962e-5
-0.964, -5.993e-5
-0.965, -6.027e-5
-0.966, -6.049e-5
-0.967, -6.085e-5
-0.968, -6.111e-5
-0.969, -6.143e-5
-0.970, -6.172e-5
-0.971, -6.197e-5
-0.972, -6.228e-5
-0.973, -6.255e-5
-0.974, -6.285e-5
-0.975, -6.313e-5
-0.976, -6.332e-5
-0.977, -6.369e-5
-0.978, -6.396e-5
-0.979, -6.419e-5
-0.980, -6.448e-5
-0.981, -6.467e-5
-0.982, -6.497e-5
-0.983, -6.519e-5
-0.984, -6.544e-5
-0.985, -6.559e-5
-0.986, -6.578e-5
-0.987, -6.597e-5
-0.988, -6.625e-5
-0.989, -6.644e-5
-0.990, -6.659e-5
-0.991, -6.673e-5
-0.992, -6.694e-5
-0.993, -6.714e-5
-0.994, -6.730e-5
-0.995, -6.732e-5
-0.996, -6.753e-5
-0.997, -6.768e-5
-0.998, -6.783e-5
-0.999, -6.795e-5
-1.000, -6.801e-5
-1.001, -6.804e-5
-1.002, -6.813e-5
-1.003, -6.813e-5
-1.004, -6.825e-5
-1.005, -6.825e-5
-1.006, -6.825e-5
-1.007, -6.832e-5
-1.008, -6.831e-5
-1.009, -6.832e-5
-1.010, -6.824e-5
-1.011, -6.810e-5
-1.012, -6.818e-5
-1.013, -6.813e-5
-1.014, -6.812e-5
-1.015, -6.806e-5
-1.016, -6.799e-5
-1.017, -6.790e-5
-1.018, -6.780e-5
-1.019, -6.772e-5
-1.020, -6.765e-5
-1.021, -6.749e-5
-1.022, -6.742e-5
-1.023, -6.730e-5
-1.024, -6.695e-5
-1.025, -6.693e-5
-1.026, -6.680e-5
-1.027, -6.668e-5
-1.028, -6.658e-5
-1.029, -6.640e-5
-1.030, -6.623e-5
-1.031, -6.609e-5
-1.032, -6.592e-5
-1.033, -6.573e-5
-1.034, -6.559e-5
-1.035, -6.537e-5
-1.036, -6.517e-5
-1.037, -6.498e-5
-1.038, -6.479e-5
-1.039, -6.463e-5
-1.040, -6.444e-5
-1.041, -6.425e-5
-1.042, -6.406e-5
-1.043, -6.384e-5
-1.044, -6.367e-5
-1.045, -6.347e-5
-1.046, -6.324e-5
-1.047, -6.308e-5
-1.048, -6.286e-5
-1.049, -6.270e-5
-1.050, -6.249e-5
-1.051, -6.225e-5
-1.052, -6.207e-5
-1.053, -6.188e-5
-1.054, -6.165e-5
-1.055, -6.145e-5
-1.056, -6.123e-5
-1.057, -6.104e-5
-1.058, -6.084e-5
-1.059, -6.064e-5
-1.060, -6.046e-5
-1.061, -6.023e-5
-1.062, -6.003e-5
-1.063, -5.985e-5
-1.064, -5.965e-5
-1.065, -5.947e-5
-1.066, -5.928e-5
-1.067, -5.908e-5
-1.068, -5.892e-5
-1.069, -5.872e-5
-1.070, -5.853e-5
-1.071, -5.835e-5
-1.072, -5.818e-5
-1.073, -5.799e-5
-1.074, -5.783e-5
-1.075, -5.763e-5
-1.076, -5.746e-5
-1.077, -5.729e-5
-1.078, -5.711e-5
-1.079, -5.696e-5
-1.080, -5.679e-5
-1.081, -5.662e-5
-1.082, -5.647e-5
-1.083, -5.631e-5
-1.084, -5.616e-5
-1.085, -5.600e-5
-1.086, -5.583e-5
-1.087, -5.569e-5
-1.088, -5.551e-5
-1.089, -5.539e-5
-1.090, -5.524e-5
-1.091, -5.508e-5
-1.092, -5.495e-5
-1.093, -5.482e-5
-1.094, -5.466e-5
-1.095, -5.453e-5
-1.096, -5.440e-5
-1.097, -5.426e-5
-1.098, -5.412e-5
-1.099, -5.400e-5
-1.100, -5.388e-5
-1.101, -5.375e-5
-1.102, -5.362e-5
-1.103, -5.350e-5
-1.104, -5.337e-5
-1.105, -5.325e-5
-1.106, -5.313e-5
-1.107, -5.301e-5
-1.108, -5.290e-5
-1.109, -5.278e-5
-1.110, -5.267e-5
-1.111, -5.256e-5
-1.112, -5.245e-5
-1.113, -5.233e-5
-1.114, -5.223e-5
-1.115, -5.212e-5
-1.116, -5.202e-5
-1.117, -5.192e-5
-1.118, -5.181e-5
-1.119, -5.171e-5
-1.120, -5.161e-5
-1.121, -5.152e-5
-1.122, -5.142e-5
-1.123, -5.132e-5
-1.124, -5.123e-5
-1.125, -5.114e-5
-1.126, -5.106e-5
-1.127, -5.096e-5
-1.128, -5.087e-5
-1.129, -5.079e-5
-1.130, -5.069e-5
-1.131, -5.060e-5
-1.132, -5.053e-5
-1.133, -5.044e-5
-1.134, -5.035e-5
-1.135, -5.027e-5
-1.136, -5.018e-5
-1.137, -5.010e-5
-1.138, -5.003e-5
-1.139, -4.993e-5
-1.140, -4.986e-5
-1.141, -4.978e-5
-1.142, -4.970e-5
-1.143, -4.962e-5
-1.144, -4.955e-5
-1.145, -4.948e-5
-1.146, -4.940e-5
-1.147, -4.933e-5
-1.148, -4.926e-5
-1.149, -4.919e-5
-1.150, -4.912e-5
-1.151, -4.905e-5
-1.152, -4.900e-5
-1.153, -4.892e-5
-1.154, -4.884e-5
-1.155, -4.877e-5
-1.156, -4.871e-5
-1.157, -4.865e-5
-1.158, -4.858e-5
-1.159, -4.852e-5
-1.160, -4.845e-5
-1.161, -4.839e-5
-1.162, -4.833e-5
-1.163, -4.827e-5
-1.164, -4.820e-5
-1.165, -4.814e-5
-1.166, -4.808e-5
-1.167, -4.803e-5
-1.168, -4.796e-5
-1.169, -4.790e-5
-1.170, -4.785e-5
-1.171, -4.779e-5
-1.172, -4.773e-5
-1.173, -4.768e-5
-1.174, -4.762e-5
-1.175, -4.757e-5
-1.176, -4.752e-5
-1.177, -4.746e-5
-1.178, -4.742e-5
-1.179, -4.736e-5
-1.180, -4.732e-5
-1.181, -4.726e-5
-1.182, -4.721e-5
-1.183, -4.716e-5
-1.184, -4.712e-5
-1.185, -4.705e-5
-1.186, -4.701e-5
-1.187, -4.695e-5
-1.188, -4.692e-5
-1.189, -4.686e-5
-1.190, -4.680e-5
-1.191, -4.675e-5
-1.192, -4.671e-5
-1.193, -4.667e-5
-1.194, -4.663e-5
-1.195, -4.657e-5
-1.196, -4.653e-5
-1.197, -4.648e-5
-1.198, -4.644e-5
-1.199, -4.640e-5
-1.200, -4.594e-5
-1.199, -4.557e-5
-1.198, -4.538e-5
-1.197, -4.521e-5
-1.196, -4.504e-5
-1.195, -4.489e-5
-1.194, -4.475e-5
-1.193, -4.462e-5
-1.192, -4.450e-5
-1.191, -4.437e-5
-1.190, -4.425e-5
-1.189, -4.414e-5
-1.188, -4.402e-5
-1.187, -4.390e-5
-1.186, -4.379e-5
-1.185, -4.369e-5
-1.184, -4.358e-5
-1.183, -4.348e-5
-1.182, -4.338e-5
-1.181, -4.329e-5
-1.180, -4.319e-5
-1.179, -4.309e-5
-1.178, -4.301e-5
-1.177, -4.290e-5
-1.176, -4.281e-5
-1.175, -4.272e-5
-1.174, -4.264e-5
-1.173, -4.255e-5
-1.172, -4.246e-5
-1.171, -4.237e-5
-1.170, -4.230e-5
-1.169, -4.222e-5
-1.168, -4.213e-5
-1.167, -4.205e-5
-1.166, -4.197e-5
-1.165, -4.190e-5
-1.164, -4.181e-5
-1.163, -4.173e-5
-1.162, -4.165e-5
-1.161, -4.158e-5
-1.160, -4.150e-5
-1.159, -4.142e-5
-1.158, -4.135e-5
-1.157, -4.129e-5
-1.156, -4.121e-5
-1.155, -4.113e-5
-1.154, -4.106e-5
-1.153, -4.100e-5
-1.152, -4.091e-5
-1.151, -4.085e-5
-1.150, -4.078e-5
-1.149, -4.071e-5
-1.148, -4.064e-5
-1.147, -4.057e-5
-1.146, -4.051e-5
-1.145, -4.043e-5
-1.144, -4.036e-5
-1.143, -4.030e-5
-1.142, -4.023e-5
-1.141, -4.016e-5
-1.140, -4.010e-5
-1.139, -4.003e-5
-1.138, -3.996e-5
-1.137, -3.990e-5
-1.136, -3.983e-5
-1.135, -3.976e-5
-1.134, -3.969e-5
-1.133, -3.963e-5
-1.132, -3.956e-5
-1.131, -3.948e-5
-1.130, -3.942e-5
-1.129, -3.935e-5
-1.128, -3.929e-5
-1.127, -3.921e-5
-1.126, -3.915e-5
-1.125, -3.909e-5
-1.124, -3.901e-5
-1.123, -3.895e-5
-1.122, -3.888e-5
-1.121, -3.881e-5
-1.120, -3.874e-5
-1.119, -3.866e-5
-1.118, -3.861e-5
-1.117, -3.853e-5
-1.116, -3.846e-5
-1.115, -3.839e-5
-1.114, -3.833e-5
-1.113, -3.826e-5
-1.112, -3.818e-5
-1.111, -3.811e-5
-1.110, -3.803e-5
-1.109, -3.796e-5
-1.108, -3.788e-5
-1.107, -3.780e-5
-1.106, -3.773e-5
-1.105, -3.765e-5
-1.104, -3.757e-5
-1.103, -3.749e-5
-1.102, -3.741e-5
-1.101, -3.732e-5
-1.100, -3.724e-5
-1.099, -3.716e-5
-1.098, -3.708e-5
-1.097, -3.700e-5
-1.096, -3.692e-5
-1.095, -3.683e-5
-1.094, -3.673e-5
-1.093, -3.666e-5
-1.092, -3.655e-5
-1.091, -3.646e-5
-1.090, -3.636e-5
-1.089, -3.626e-5
-1.088, -3.618e-5
-1.087, -3.606e-5
-1.086, -3.596e-5
-1.085, -3.586e-5
-1.084, -3.574e-5
-1.083, -3.563e-5
-1.082, -3.552e-5
-1.081, -3.540e-5
-1.080, -3.529e-5
-1.079, -3.517e-5
-1.078, -3.506e-5
-1.077, -3.494e-5
-1.076, -3.480e-5
-1.075, -3.468e-5
-1.074, -3.455e-5
-1.073, -3.441e-5
-1.072, -3.427e-5
-1.071, -3.411e-5
-1.070, -3.397e-5
-1.069, -3.383e-5
-1.068, -3.367e-5
-1.067, -3.349e-5
-1.066, -3.335e-5
-1.065, -3.318e-5
-1.064, -3.302e-5
-1.063, -3.285e-5
-1.062, -3.268e-5
-1.061, -3.250e-5
-1.060, -3.229e-5
-1.059, -3.210e-5
-1.058, -3.192e-5
-1.057, -3.170e-5
-1.056, -3.152e-5
-1.055, -3.127e-5
-1.054, -3.107e-5
-1.053, -3.086e-5
-1.052, -3.059e-5
-1.051, -3.039e-5
-1.050, -3.009e-5
-1.049, -2.988e-5
-1.048, -2.964e-5
-1.047, -2.936e-5
-1.046, -2.910e-5
-1.045, -2.884e-5
-1.044, -2.858e-5
-1.043, -2.829e-5
-1.042, -2.800e-5
-1.041, -2.770e-5
-1.040, -2.739e-5
-1.039, -2.707e-5
-1.038, -2.675e-5
-1.037, -2.648e-5
-1.036, -2.612e-5
-1.035, -2.576e-5
-1.034, -2.547e-5
-1.033, -2.508e-5
-1.032, -2.472e-5
-1.031, -2.434e-5
-1.030, -2.395e-5
-1.029, -2.360e-5
-1.028, -2.319e-5
-1.027, -2.277e-5
-1.026, -2.239e-5
-1.025, -2.198e-5
-1.024, -2.178e-5
-1.023, -2.123e-5
-1.022, -2.073e-5
-1.021, -2.037e-5
-1.020, -1.984e-5
-1.019, -1.940e-5
-1.018, -1.896e-5
-1.017, -1.846e-5
-1.016, -1.802e-5
-1.015, -1.752e-5
-1.014, -1.701e-5
-1.013, -1.654e-5
-1.012, -1.602e-5
-1.011, -1.563e-5
-1.010, -1.505e-5
-1.009, -1.456e-5
-1.008, -1.405e-5
-1.007, -1.346e-5
-1.006, -1.299e-5
-1.005, -1.245e-5
-1.004, -1.196e-5
-1.003, -1.140e-5
-1.002, -1.084e-5
-1.001, -1.036e-5
-1.000, -9.843e-6
-0.999, -9.195e-6
-0.998, -8.564e-6
-0.997, -8.136e-6
-0.996, -7.629e-6
-0.995, -7.046e-6
-0.994, -6.549e-6
-0.993, -6.047e-6
-0.992, -5.547e-6
-0.991, -4.971e-6
-0.990, -4.457e-6
-0.989, -3.969e-6
-0.988, -3.419e-6
-0.987, -2.919e-6
-0.986, -2.523e-6
-0.985, -2.031e-6
-0.984, -1.522e-6
-0.983, -1.004e-6
-0.982, -4.823e-7
-0.981, -6.537e-8
-0.980, 4.774e-7
-0.979, 9.064e-7
-0.978, 1.412e-6
-0.977, 1.859e-6
-0.976, 2.270e-6
-0.975, 2.735e-6
-0.974, 3.192e-6
-0.973, 3.557e-6
-0.972, 4.025e-6
-0.971, 4.423e-6
-0.970, 4.884e-6
-0.969, 5.289e-6
-0.968, 5.737e-6
-0.967, 6.126e-6
-0.966, 6.491e-6
-0.965, 6.868e-6
-0.964, 7.244e-6
-0.963, 7.732e-6
-0.962, 8.073e-6
-0.961, 8.386e-6
-0.960, 8.640e-6
-0.959, 9.154e-6
-0.958, 9.509e-6
-0.957, 9.838e-6
-0.956, 1.016e-5
-0.955, 1.061e-5
-0.954, 1.090e-5
-0.953, 1.129e-5
-0.952, 1.160e-5
-0.951, 1.201e-5
-0.950, 1.237e-5
-0.949, 1.265e-5
-0.948, 1.303e-5
-0.947, 1.358e-5
-0.946, 1.376e-5
-0.945, 1.416e-5
-0.944, 1.439e-5
-0.943, 1.477e-5
-0.942, 1.517e-5
-0.941, 1.533e-5
-0.940, 1.577e-5
-0.939, 1.606e-5
-0.938, 1.642e-5
-0.937, 1.681e-5
-0.936, 1.702e-5
-0.935, 1.740e-5
-0.934, 1.759e-5
-0.933, 1.799e-5
-0.932, 1.839e-5
-0.931, 1.866e-5
-0.930, 1.902e-5
-0.929, 1.931e-5
-0.928, 1.966e-5
-0.927, 1.994e-5
-0.926, 2.027e-5
-0.925, 2.051e-5
-0.924, 2.079e-5
-0.923, 2.111e-5
-0.922, 2.148e-5
-0.921, 2.174e-5
-0.920, 2.198e-5
-0.919, 2.221e-5
-0.918, 2.249e-5
-0.917, 2.273e-5
-0.916, 2.296e-5
-0.915, 2.317e-5
-0.914, 2.338e-5
-0.913, 2.364e-5
-0.912, 2.374e-5
-0.911, 2.397e-5
-0.910, 2.421e-5
-0.909, 2.421e-5
-0.908, 2.445e-5
-0.907, 2.458e-5
-0.906, 2.469e-5
-0.905, 2.487e-5
-0.904, 2.495e-5
-0.903, 2.509e-5
-0.902, 2.519e-5
-0.901, 2.519e-5
-0.900, 2.531e-5
-0.899, 2.533e-5
-0.898, 2.538e-5
-0.897, 2.544e-5
-0.896, 2.553e-5
-0.895, 2.554e-5
-0.894, 2.549e-5
-0.893, 2.541e-5
-0.892, 2.546e-5
-0.891, 2.539e-5
-0.890, 2.534e-5
-0.889, 2.523e-5
-0.888, 2.519e-5
-0.887, 2.512e-5
-0.886, 2.502e-5
-0.885, 2.490e-5
-0.884, 2.478e-5
-0.883, 2.458e-5
-0.882, 2.453e-5
-0.881, 2.435e-5
-0.880, 2.421e-5
-0.879, 2.406e-5
-0.878, 2.395e-5
-0.877, 2.373e-5
-0.876, 2.360e-5
-0.875, 2.341e-5
-0.874, 2.325e-5
-0.873, 2.307e-5
-0.872, 2.285e-5
-0.871, 2.266e-5
-0.870, 2.246e-5
-0.869, 2.222e-5
-0.868, 2.205e-5
-0.867, 2.183e-5
-0.866, 2.156e-5
-0.865, 2.137e-5
-0.864, 2.112e-5
-0.863, 2.094e-5
-0.862, 2.073e-5
-0.861, 2.049e-5
-0.860, 2.026e-5
-0.859, 2.004e-5
-0.858, 1.978e-5
-0.857, 1.956e-5
-0.856, 1.931e-5
-0.855, 1.912e-5
-0.854, 1.886e-5
-0.853, 1.863e-5
-0.852, 1.842e-5
-0.851, 1.815e-5
-0.850, 1.796e-5
-0.849, 1.771e-5
-0.848, 1.748e-5
-0.847, 1.726e-5
-0.846, 1.703e-5
-0.845, 1.684e-5
-0.844, 1.660e-5
-0.843, 1.636e-5
-0.842, 1.614e-5
-0.841, 1.592e-5
-0.840, 1.569e-5
-0.839, 1.546e-5
-0.838, 1.526e-5
-0.837, 1.503e-5
-0.836, 1.482e-5
-0.835, 1.461e-5
-0.834, 1.439e-5
-0.833, 1.419e-5
-0.832, 1.396e-5
-0.831, 1.377e-5
-0.830, 1.358e-5
-0.829, 1.337e-5
-0.828, 1.319e-5
-0.827, 1.299e-5
-0.826, 1.279e-5
-0.825, 1.260e-5
-0.824, 1.241e-5
-0.823, 1.223e-5
-0.822, 1.204e-5
-0.821, 1.186e-5
-0.820, 1.169e-5
-0.819, 1.148e-5
-0.818, 1.133e-5
-0.817, 1.117e-5
-0.816, 1.099e-5
-0.815, 1.083e-5
-0.814, 1.066e-5
-0.813, 1.049e-5
-0.812, 1.033e-5
-0.811, 1.017e-5
-0.810, 1.002e-5
-0.809, 9.862e-6
-0.808, 9.709e-6
-0.807, 9.552e-6
-0.806, 9.396e-6
-0.805, 9.255e-6
-0.804, 9.118e-6
-0.803, 8.975e-6
-0.802, 8.826e-6
-0.801, 8.688e-6
-0.800, 8.553e-6
-0.799, 8.420e-6
-0.798, 8.285e-6
-0.797, 8.149e-6
-0.796, 8.021e-6
-0.795, 7.906e-6
-0.794, 7.783e-6
-0.793, 7.648e-6
-0.792, 7.521e-6
-0.791, 7.396e-6
-0.790, 7.285e-6
-0.789, 7.163e-6
-0.788, 7.049e-6
-0.787, 6.931e-6
-0.786, 6.816e-6
-0.785, 6.715e-6
-0.784, 6.597e-6
-0.783, 6.484e-6
-0.782, 6.389e-6
-0.781, 6.265e-6
-0.780, 6.175e-6
-0.779, 6.070e-6
-0.778, 5.967e-6
-0.777, 5.875e-6
-0.776, 5.775e-6
-0.775, 5.688e-6
-0.774, 5.590e-6
-0.773, 5.492e-6
-0.772, 5.401e-6
-0.771, 5.312e-6
-0.770, 5.225e-6
-0.769, 5.130e-6
-0.768, 5.038e-6
-0.767, 4.967e-6
-0.766, 4.872e-6
-0.765, 4.790e-6
-0.764, 4.706e-6
-0.763, 4.627e-6
-0.762, 4.544e-6
-0.761, 4.461e-6
-0.760, 4.386e-6
-0.759, 4.316e-6
-0.758, 4.243e-6
-0.757, 4.162e-6
-0.756, 4.086e-6
-0.755, 4.011e-6
-0.754, 3.948e-6
-0.753, 3.872e-6
-0.752, 3.797e-6
-0.751, 3.726e-6
-0.750, 3.668e-6
-0.749, 3.591e-6
-0.748, 3.527e-6
-0.747, 3.461e-6
-0.746, 3.391e-6
-0.745, 3.330e-6
-0.744, 3.276e-6
-0.743, 3.223e-6
-0.742, 3.155e-6
-0.741, 3.080e-6
-0.740, 3.035e-6
-0.739, 2.973e-6
-0.738, 2.911e-6
-0.737, 2.857e-6
-0.736, 2.793e-6
-0.735, 2.747e-6
-0.734, 2.690e-6
-0.733, 2.628e-6
-0.732, 2.576e-6
-0.731, 2.521e-6
-0.730, 2.467e-6
-0.729, 2.409e-6
-0.728, 2.362e-6
-0.727, 2.311e-6
-0.726, 2.260e-6
-0.725, 2.209e-6
-0.724, 2.161e-6
-0.723, 2.114e-6
-0.722, 2.062e-6
-0.721, 2.013e-6
-0.720, 1.967e-6
-0.719, 1.921e-6
-0.718, 1.876e-6
-0.717, 1.839e-6
-0.716, 1.787e-6
-0.715, 1.742e-6
-0.714, 1.694e-6
-0.713, 1.649e-6
-0.712, 1.606e-6
-0.711, 1.560e-6
-0.710, 1.518e-6
-0.709, 1.471e-6
-0.708, 1.433e-6
-0.707, 1.387e-6
-0.706, 1.339e-6
-0.705, 1.305e-6
-0.704, 1.252e-6
-0.703, 1.220e-6
-0.702, 1.180e-6
-0.701, 1.130e-6
-0.700, 1.098e-6
-0.699, 1.056e-6
-0.698, 1.013e-6
-0.697, 9.738e-7
-0.696, 9.396e-7
-0.695, 9.022e-7
-0.694, 8.602e-7
-0.693, 8.184e-7
-0.692, 7.804e-7
-0.691, 7.498e-7
-0.690, 7.054e-7
-0.689, 6.654e-7
-0.688, 6.253e-7
-0.687, 5.875e-7
-0.686, 5.503e-7
-0.685, 5.176e-7
-0.684, 4.772e-7
-0.683, 4.421e-7
-0.682, 3.971e-7
-0.681, 3.663e-7
-0.680, 3.287e-7
-0.679, 2.866e-7
-0.678, 2.541e-7
-0.677, 2.148e-7
-0.676, 1.832e-7
-0.675, 1.495e-7
-0.674, 1.146e-7
-0.673, 8.090e-8
-0.672, 4.358e-8
-0.671, 1.230e-8
-0.670, -2.259e-8
-0.669, -6.206e-8
-0.668, -9.100e-8
-0.667, -1.231e-7
-0.666, -1.665e-7
-0.665, -1.860e-7
-0.664, -2.285e-7
-0.663, -2.492e-7
-0.662, -2.924e-7
-0.661, -3.261e-7
-0.660, -3.483e-7
-0.659, -3.821e-7
-0.658, -4.141e-7
-0.657, -4.441e-7
-0.656, -4.744e-7
-0.655, -4.977e-7
-0.654, -5.294e-7
-0.653, -5.659e-7
-0.652, -5.848e-7
-0.651, -6.143e-7
-0.650, -6.395e-7
-0.649, -6.684e-7
-0.648, -6.983e-7
-0.647, -7.158e-7
-0.646, -7.489e-7
-0.645, -7.705e-7
-0.644, -7.975e-7
-0.643, -8.235e-7
-0.642, -8.494e-7
-0.641, -8.726e-7
-0.640, -8.818e-7
-0.639, -9.164e-7
-0.638, -9.397e-7
-0.637, -9.652e-7
-0.636, -9.819e-7
-0.635, -1.001e-6
-0.634, -1.031e-6
-0.633, -1.056e-6
-0.632, -1.073e-6
-0.631, -1.091e-6
-0.630, -1.113e-6
-0.629, -1.136e-6
-0.628, -1.158e-6
-0.627, -1.183e-6
-0.626, -1.200e-6
-0.625, -1.219e-6
-0.624, -1.241e-6
-0.623, -1.254e-6
-0.622, -1.279e-6
-0.621, -1.299e-6
-0.620, -1.312e-6
-0.619, -1.333e-6
-0.618, -1.351e-6
-0.617, -1.366e-6
-0.616, -1.384e-6
-0.615, -1.412e-6
-0.614, -1.428e-6
-0.613, -1.439e-6
-0.612, -1.455e-6
-0.611, -1.472e-6
-0.610, -1.485e-6
-0.609, -1.508e-6
-0.608, -1.517e-6
-0.607, -1.540e-6
-0.606, -1.555e-6
-0.605, -1.566e-6
-0.604, -1.578e-6
-0.603, -1.594e-6
-0.602, -1.620e-6
-0.601, -1.625e-6
-0.600, -1.640e-6
-0.599, -1.652e-6
-0.598, -1.667e-6
-0.597, -1.686e-6
-0.596, -1.696e-6
-0.595, -1.705e-6
-0.594, -1.726e-6
-0.593, -1.738e-6
-0.592, -1.753e-6
-0.591, -1.765e-6
-0.590, -1.775e-6
-0.589, -1.785e-6
-0.588, -1.798e-6
-0.587, -1.809e-6
-0.586, -1.819e-6
-0.585, -1.829e-6
-0.584, -1.849e-6
-0.583, -1.856e-6
-0.582, -1.866e-6
-0.581, -1.880e-6
-0.580, -1.887e-6
-0.579, -1.900e-6
-0.578, -1.912e-6
-0.577, -1.923e-6
-0.576, -1.936e-6
-0.575, -1.940e-6
-0.574, -1.952e-6
-0.573, -1.961e-6
-0.572, -1.966e-6
-0.571, -1.977e-6
-0.570, -1.985e-6
-0.569, -1.999e-6
-0.568, -2.003e-6
-0.567, -2.013e-6
-0.566, -2.022e-6
-0.565, -2.032e-6
-0.564, -2.038e-6
-0.563, -2.045e-6
-0.562, -2.052e-6
-0.561, -2.060e-6
-0.560, -2.065e-6
-0.559, -2.071e-6
-0.558, -2.078e-6
-0.557, -2.092e-6
-0.556, -2.093e-6
-0.555, -2.097e-6
-0.554, -2.109e-6
-0.553, -2.111e-6
-0.552, -2.121e-6
-0.551, -2.130e-6
-0.550, -2.131e-6
-0.549, -2.140e-6
-0.548, -2.144e-6
-0.547, -2.148e-6
-0.546, -2.155e-6
-0.545, -2.158e-6
-0.544, -2.163e-6
-0.543, -2.163e-6
-0.542, -2.171e-6
-0.541, -2.178e-6
-0.540, -2.177e-6
-0.539, -2.186e-6
-0.538, -2.185e-6
-0.537, -2.189e-6
-0.536, -2.193e-6
-0.535, -2.195e-6
-0.534, -2.206e-6
-0.533, -2.211e-6
-0.532, -2.207e-6
-0.531, -2.209e-6
-0.530, -2.213e-6
-0.529, -2.221e-6
-0.528, -2.220e-6
-0.527, -2.222e-6
-0.526, -2.223e-6
-0.525, -2.235e-6
-0.524, -2.233e-6
-0.523, -2.233e-6
-0.522, -2.235e-6
-0.521, -2.234e-6
-0.520, -2.238e-6
-0.519, -2.239e-6
-0.518, -2.240e-6
-0.517, -2.243e-6
-0.516, -2.236e-6
-0.515, -2.242e-6
-0.514, -2.246e-6
-0.513, -2.243e-6
-0.512, -2.238e-6
-0.511, -2.240e-6
-0.510, -2.242e-6
-0.509, -2.247e-6
-0.508, -2.241e-6
-0.507, -2.242e-6
-0.506, -2.244e-6
-0.505, -2.242e-6
-0.504, -2.245e-6
-0.503, -2.240e-6
-0.502, -2.241e-6
-0.501, -2.242e-6
-0.500, -2.238e-6
-0.499, -2.244e-6
-0.498, -2.242e-6
-0.497, -2.238e-6
-0.496, -2.237e-6
-0.495, -2.228e-6
-0.494, -2.236e-6
-0.493, -2.237e-6
-0.492, -2.231e-6
-0.491, -2.225e-6
-0.490, -2.225e-6
-0.489, -2.229e-6
-0.488, -2.222e-6
-0.487, -2.213e-6
-0.486, -2.212e-6
-0.485, -2.212e-6
-0.484, -2.214e-6
-0.483, -2.211e-6
-0.482, -2.210e-6
-0.481, -2.208e-6
-0.480, -2.205e-6
-0.479, -2.207e-6
-0.478, -2.200e-6
-0.477, -2.199e-6
-0.476, -2.193e-6
-0.475, -2.189e-6
-0.474, -2.200e-6
-0.473, -2.191e-6
-0.472, -2.187e-6
-0.471, -2.180e-6
-0.470, -2.179e-6
-0.469, -2.184e-6
-0.468, -2.172e-6
-0.467, -2.168e-6
-0.466, -2.175e-6
-0.465, -2.166e-6
-0.464, -2.164e-6
-0.463, -2.160e-6
-0.462, -2.160e-6
-0.461, -2.160e-6
-0.460, -2.152e-6
-0.459, -2.148e-6
-0.458, -2.148e-6
-0.457, -2.143e-6
-0.456, -2.143e-6
-0.455, -2.137e-6
-0.454, -2.134e-6
-0.453, -2.134e-6
-0.452, -2.130e-6
-0.451, -2.125e-6
-0.450, -2.124e-6
-0.449, -2.120e-6
-0.448, -2.124e-6
-0.447, -2.116e-6
-0.446, -2.111e-6
-0.445, -2.108e-6
-0.444, -2.104e-6
-0.443, -2.099e-6
-0.442, -2.103e-6
-0.441, -2.094e-6
-0.440, -2.091e-6
-0.439, -2.088e-6
-0.438, -2.086e-6
-0.437, -2.084e-6
-0.436, -2.077e-6
-0.435, -2.071e-6
-0.434, -2.075e-6
-0.433, -2.069e-6
-0.432, -2.069e-6
-0.431, -2.063e-6
-0.430, -2.060e-6
-0.429, -2.062e-6
-0.428, -2.054e-6
-0.427, -2.051e-6
-0.426, -2.054e-6
-0.425, -2.048e-6
-0.424, -2.045e-6
-0.423, -2.046e-6
-0.422, -2.041e-6
-0.421, -2.039e-6
-0.420, -2.036e-6
-0.419, -2.035e-6
-0.418, -2.025e-6
-0.417, -2.028e-6
-0.416, -2.024e-6
-0.415, -2.020e-6
-0.414, -2.018e-6
-0.413, -2.014e-6
-0.412, -2.010e-6
-0.411, -2.004e-6
-0.410, -2.029e-6
-0.409, -2.011e-6
-0.408, -2.004e-6
-0.407, -2.000e-6
-0.406, -1.996e-6
-0.405, -1.993e-6
-0.404, -1.990e-6
-0.403, -1.984e-6
-0.402, -1.986e-6
-0.401, -1.981e-6
-0.400, -1.977e-6
-0.399, -1.977e-6
-0.398, -1.970e-6
-0.397, -1.977e-6
-0.396, -1.965e-6
-0.395, -1.964e-6
-0.394, -1.963e-6
-0.393, -1.958e-6
-0.392, -1.959e-6
-0.391, -1.951e-6
-0.390, -1.949e-6
-0.389, -1.948e-6
-0.388, -1.946e-6
-0.387, -1.940e-6
-0.386, -1.940e-6
-0.385, -1.936e-6
-0.384, -1.928e-6
-0.383, -1.928e-6
-0.382, -1.925e-6
-0.381, -1.927e-6
-0.380, -1.921e-6
-0.379, -1.920e-6
-0.378, -1.919e-6
-0.377, -1.915e-6
-0.376, -1.910e-6
-0.375, -1.910e-6
-0.374, -1.907e-6
-0.373, -1.901e-6
-0.372, -1.901e-6
-0.371, -1.904e-6
-0.370, -1.898e-6
-0.369, -1.895e-6
-0.368, -1.886e-6
-0.367, -1.886e-6
-0.366, -1.879e-6
-0.365, -1.889e-6
-0.364, -1.878e-6
-0.363, -1.872e-6
-0.362, -1.872e-6
-0.361, -1.870e-6
-0.360, -1.872e-6
-0.359, -1.864e-6
-0.358, -1.861e-6
-0.357, -1.864e-6
-0.356, -1.856e-6
-0.355, -1.853e-6
-0.354, -1.851e-6
-0.353, -1.848e-6
-0.352, -1.847e-6
-0.351, -1.845e-6
-0.350, -1.837e-6
-0.349, -1.838e-6
-0.348, -1.834e-6
-0.347, -1.830e-6
-0.346, -1.837e-6
-0.345, -1.831e-6
-0.344, -1.824e-6
-0.343, -1.825e-6
-0.342, -1.819e-6
-0.341, -1.822e-6
-0.340, -1.818e-6
-0.339, -1.814e-6
-0.338, -1.808e-6
-0.337, -1.812e-6
-0.336, -1.803e-6
-0.335, -1.805e-6
-0.334, -1.803e-6
-0.333, -1.793e-6
-0.332, -1.793e-6
-0.331, -1.789e-6
-0.330, -1.795e-6
-0.329, -1.788e-6
-0.328, -1.785e-6
-0.327, -1.783e-6
-0.326, -1.778e-6
-0.325, -1.781e-6
-0.324, -1.774e-6
-0.323, -1.768e-6
-0.322, -1.769e-6
-0.321, -1.766e-6
-0.320, -1.770e-6
-0.319, -1.761e-6
-0.318, -1.754e-6
-0.317, -1.757e-6
-0.316, -1.751e-6
-0.315, -1.748e-6
-0.314, -1.748e-6
-0.313, -1.739e-6
-0.312, -1.741e-6
-0.311, -1.740e-6
-0.310, -1.736e-6
-0.309, -1.734e-6
-0.308, -1.724e-6
-0.307, -1.721e-6
-0.306, -1.720e-6
-0.305, -1.716e-6
-0.304, -1.717e-6
-0.303, -1.710e-6
-0.302, -1.713e-6
-0.301, -1.709e-6
-0.300, -1.702e-6
-0.299, -1.699e-6
-0.298, -1.699e-6
-0.297, -1.698e-6
-0.296, -1.694e-6
-0.295, -1.693e-6
-0.294, -1.690e-6
-0.293, -1.690e-6
-0.292, -1.685e-6
-0.291, -1.679e-6
-0.290, -1.678e-6
-0.289, -1.677e-6
-0.288, -1.673e-6
-0.287, -1.671e-6
-0.286, -1.665e-6
-0.285, -1.665e-6
-0.284, -1.660e-6
-0.283, -1.658e-6
-0.282, -1.652e-6
-0.281, -1.644e-6
-0.280, -1.647e-6
-0.279, -1.639e-6
-0.278, -1.641e-6
-0.277, -1.638e-6
-0.276, -1.632e-6
-0.275, -1.631e-6
-0.274, -1.628e-6
-0.273, -1.624e-6
-0.272, -1.623e-6
-0.271, -1.618e-6
-0.270, -1.619e-6
-0.269, -1.624e-6
-0.268, -1.612e-6
-0.267, -1.605e-6
-0.266, -1.607e-6
-0.265, -1.605e-6
-0.264, -1.600e-6
-0.263, -1.592e-6
-0.262, -1.595e-6
-0.261, -1.593e-6
-0.260, -1.589e-6
-0.259, -1.581e-6
-0.258, -1.581e-6
-0.257, -1.579e-6
-0.256, -1.579e-6
-0.255, -1.573e-6
-0.254, -1.572e-6
-0.253, -1.567e-6
-0.252, -1.566e-6
-0.251, -1.561e-6
-0.250, -1.561e-6
-0.249, -1.557e-6
-0.248, -1.550e-6
-0.247, -1.553e-6
-0.246, -1.546e-6
-0.245, -1.544e-6
-0.244, -1.539e-6
-0.243, -1.543e-6
-0.242, -1.539e-6
-0.241, -1.533e-6
-0.240, -1.529e-6
-0.239, -1.525e-6
-0.238, -1.523e-6
-0.237, -1.527e-6
-0.236, -1.518e-6
-0.235, -1.514e-6
-0.234, -1.512e-6
-0.233, -1.508e-6
-0.232, -1.507e-6
-0.231, -1.493e-6
-0.230, -1.496e-6
-0.229, -1.497e-6
-0.228, -1.492e-6
-0.227, -1.489e-6
-0.226, -1.485e-6
-0.225, -1.482e-6
-0.224, -1.481e-6
-0.223, -1.475e-6
-0.222, -1.477e-6
-0.221, -1.471e-6
-0.220, -1.471e-6
-0.219, -1.466e-6
-0.218, -1.468e-6
-0.217, -1.464e-6
-0.216, -1.459e-6
-0.215, -1.458e-6
-0.214, -1.451e-6
-0.213, -1.451e-6
-0.212, -1.447e-6
-0.211, -1.447e-6
-0.210, -1.443e-6
-0.209, -1.437e-6
-0.208, -1.436e-6
-0.207, -1.434e-6
-0.206, -1.433e-6
-0.205, -1.446e-6
-0.204, -1.428e-6
-0.203, -1.422e-6
-0.202, -1.422e-6
-0.201, -1.419e-6
-0.200, -1.416e-6
-0.199, -1.410e-6
-0.198, -1.409e-6
-0.197, -1.409e-6
-0.196, -1.403e-6
-0.195, -1.401e-6
-0.194, -1.394e-6
-0.193, -1.394e-6
-0.192, -1.400e-6
-0.191, -1.387e-6
-0.190, -1.384e-6
-0.189, -1.383e-6
-0.188, -1.380e-6
-0.187, -1.377e-6
-0.186, -1.373e-6
-0.185, -1.374e-6
-0.184, -1.369e-6
-0.183, -1.364e-6
-0.182, -1.361e-6
-0.181, -1.360e-6
-0.180, -1.357e-6
-0.179, -1.345e-6
-0.178, -1.351e-6
-0.177, -1.346e-6
-0.176, -1.344e-6
-0.175, -1.341e-6
-0.174, -1.339e-6
-0.173, -1.335e-6
-0.172, -1.332e-6
-0.171, -1.330e-6
-0.170, -1.329e-6
-0.169, -1.321e-6
-0.168, -1.323e-6
-0.167, -1.323e-6
-0.166, -1.317e-6
-0.165, -1.319e-6
-0.164, -1.307e-6
-0.163, -1.309e-6
-0.162, -1.309e-6
-0.161, -1.304e-6
-0.160, -1.301e-6
-0.159, -1.292e-6
-0.158, -1.294e-6
-0.157, -1.294e-6
-0.156, -1.286e-6
-0.155, -1.283e-6
-0.154, -1.285e-6
-0.153, -1.275e-6
-0.152, -1.279e-6
-0.151, -1.274e-6
-0.150, -1.266e-6
-0.149, -1.268e-6
-0.148, -1.259e-6
-0.147, -1.264e-6
-0.146, -1.254e-6
-0.145, -1.255e-6
-0.144, -1.249e-6
-0.143, -1.248e-6
-0.142, -1.246e-6
-0.141, -1.245e-6
-0.140, -1.238e-6
-0.139, -1.236e-6
-0.138, -1.234e-6
-0.137, -1.230e-6
-0.136, -1.225e-6
-0.135, -1.222e-6
-0.134, -1.221e-6
-0.133, -1.219e-6
-0.132, -1.214e-6
-0.131, -1.209e-6
-0.130, -1.212e-6
-0.129, -1.205e-6
-0.128, -1.195e-6
-0.127, -1.198e-6
-0.126, -1.192e-6
-0.125, -1.199e-6
-0.124, -1.192e-6
-0.123, -1.183e-6
-0.122, -1.184e-6
-0.121, -1.182e-6
-0.120, -1.179e-6
-0.119, -1.175e-6
-0.118, -1.171e-6
-0.117, -1.169e-6
-0.116, -1.164e-6
-0.115, -1.171e-6
-0.114, -1.165e-6
-0.113, -1.155e-6
-0.112, -1.156e-6
-0.111, -1.151e-6
-0.110, -1.152e-6
-0.109, -1.146e-6
-0.108, -1.141e-6
-0.107, -1.142e-6
-0.106, -1.138e-6
-0.105, -1.135e-6
-0.104, -1.131e-6
-0.103, -1.120e-6
-0.102, -1.123e-6
-0.101, -1.119e-6
-0.100, -1.116e-6
-0.099, -1.109e-6
-0.098, -1.111e-6
-0.097, -1.110e-6
-0.096, -1.104e-6
-0.095, -1.098e-6
-0.094, -1.098e-6
-0.093, -1.101e-6
-0.092, -1.093e-6
-0.091, -1.087e-6
-0.090, -1.095e-6
-0.089, -1.087e-6
-0.088, -1.086e-6
-0.087, -1.083e-6
-0.086, -1.073e-6
-0.085, -1.074e-6
-0.084, -1.070e-6
-0.083, -1.067e-6
-0.082, -1.063e-6
-0.081, -1.059e-6
-0.080, -1.057e-6
-0.079, -1.056e-6
-0.078, -1.051e-6
-0.077, -1.044e-6
-0.076, -1.038e-6
-0.075, -1.041e-6
-0.074, -1.040e-6
-0.073, -1.037e-6
-0.072, -1.033e-6
-0.071, -1.031e-6
-0.070, -1.028e-6
-0.069, -1.027e-6
-0.068, -1.021e-6
-0.067, -1.014e-6
-0.066, -1.015e-6
-0.065, -1.016e-6
-0.064, -1.016e-6
-0.063, -1.007e-6
-0.062, -1.006e-6
-0.061, -1.001e-6
-0.060, -1.001e-6
-0.059, -9.940e-7
-0.058, -9.961e-7
-0.057, -9.915e-7
-0.056, -9.896e-7
-0.055, -9.867e-7
-0.054, -9.802e-7
-0.053, -9.859e-7
-0.052, -9.800e-7
-0.051, -9.805e-7
-0.050, -9.768e-7
-0.049, -9.709e-7
-0.048, -9.703e-7
-0.047, -9.693e-7
-0.046, -9.648e-7
-0.045, -9.658e-7
-0.044, -9.608e-7
-0.043, -9.637e-7
-0.042, -9.586e-7
-0.041, -9.562e-7
-0.040, -9.520e-7
-0.039, -9.534e-7
-0.038, -9.565e-7
-0.037, -9.508e-7
-0.036, -9.426e-7
-0.035, -9.437e-7
-0.034, -9.463e-7
-0.033, -9.426e-7
-0.032, -9.423e-7
-0.031, -9.352e-7
-0.030, -9.373e-7
-0.029, -9.367e-7
-0.028, -9.342e-7
-0.027, -9.303e-7
-0.026, -9.203e-7
-0.025, -9.257e-7
-0.024, -9.263e-7
-0.023, -9.224e-7
-0.022, -9.174e-7
-0.021, -9.184e-7
-0.020, -9.156e-7
-0.019, -9.146e-7
-0.018, -9.154e-7
-0.017, -9.106e-7
-0.016, -9.129e-7
-0.015, -9.089e-7
-0.014, -9.057e-7
-0.013, -9.118e-7
-0.012, -9.049e-7
-0.011, -9.024e-7
-0.010, -9.038e-7
-0.009, -8.988e-7
-0.008, -8.994e-7
-0.007, -8.950e-7
-0.006, -8.935e-7
-0.005, -8.932e-7
-0.004, -8.848e-7
-0.003, -8.879e-7
-0.002, -8.900e-7
-0.001, -8.848e-7
-0.000, -9.068e-7
0.001, -8.861e-7
0.002, -8.873e-7
0.003, -8.876e-7
0.004, -8.811e-7
0.005, -8.806e-7
0.006, -8.801e-7
0.007, -8.788e-7
0.008, -8.806e-7
0.009, -8.741e-7
0.010, -8.761e-7
0.011, -8.811e-7
0.012, -8.759e-7
0.013, -8.829e-7
0.014, -8.739e-7
0.015, -8.754e-7
0.016, -8.784e-7
0.017, -8.729e-7
0.018, -8.739e-7
0.019, -8.770e-7
0.020, -8.748e-7
0.021, -8.739e-7
0.022, -8.750e-7
0.023, -8.743e-7
0.024, -8.737e-7
0.025, -8.693e-7
0.026, -8.732e-7
0.027, -8.754e-7
0.028, -8.729e-7
0.029, -8.746e-7
0.030, -8.772e-7
0.031, -8.756e-7
0.032, -8.801e-7
0.033, -8.750e-7
0.034, -8.764e-7
0.035, -8.808e-7
0.036, -8.776e-7
0.037, -8.745e-7
0.038, -8.875e-7
0.039, -8.814e-7
0.040, -8.838e-7
0.041, -8.770e-7
0.042, -8.809e-7
0.043, -8.829e-7
0.044, -8.817e-7
0.045, -8.846e-7
0.046, -8.859e-7
0.047, -8.762e-7
0.048, -8.871e-7
0.049, -8.800e-7
0.050, -8.853e-7
0.051, -8.863e-7
0.052, -8.842e-7
0.053, -8.853e-7
0.054, -8.830e-7
0.055, -8.856e-7
0.056, -8.821e-7
0.057, -8.870e-7
0.058, -8.847e-7
0.059, -8.808e-7
0.060, -8.844e-7
0.061, -8.828e-7
0.062, -8.844e-7
0.063, -8.848e-7
0.064, -8.870e-7
0.065, -8.845e-7
0.066, -8.835e-7
0.067, -8.842e-7
0.068, -8.816e-7
0.069, -8.783e-7
0.070, -8.858e-7
0.071, -8.833e-7
0.072, -8.809e-7
0.073, -8.760e-7
0.074, -8.739e-7
0.075, -8.798e-7
0.076, -8.736e-7
0.077, -8.670e-7
0.078, -8.729e-7
0.079, -8.679e-7
0.080, -8.733e-7
0.081, -8.673e-7
0.082, -8.660e-7
0.083, -8.688e-7
0.084, -8.621e-7
0.085, -8.655e-7
0.086, -8.646e-7
0.087, -8.610e-7
0.088, -8.616e-7
0.089, -8.626e-7
0.090, -8.608e-7
0.091, -8.604e-7
0.092, -8.560e-7
0.093, -8.540e-7
0.094, -8.526e-7
0.095, -8.510e-7
0.096, -8.485e-7
0.097, -8.476e-7
0.098, -8.472e-7
0.099, -8.456e-7
0.100, -8.459e-7
0.101, -8.385e-7
0.102, -8.397e-7
0.103, -8.364e-7
0.104, -8.339e-7
0.105, -8.327e-7
0.106, -8.314e-7
0.107, -8.337e-7
0.108, -8.279e-7
0.109, -8.221e-7
0.110, -8.265e-7
0.111, -8.221e-7
0.112, -8.218e-7
0.113, -8.156e-7
0.114, -8.130e-7
0.115, -8.212e-7
0.116, -8.151e-7
0.117, -8.089e-7
0.118, -8.084e-7
0.119, -8.036e-7
0.120, -8.058e-7
0.121, -8.021e-7
0.122, -7.993e-7
0.123, -7.961e-7
0.124, -7.917e-7
0.125, -7.925e-7
0.126, -7.896e-7
0.127, -7.848e-7
0.128, -7.730e-7
0.129, -7.768e-7
0.130, -7.799e-7
0.131, -7.758e-7
0.132, -7.703e-7
0.133, -7.661e-7
0.134, -7.704e-7
0.135, -7.668e-7
0.136, -7.618e-7
0.137, -7.561e-7
0.138, -7.550e-7
0.139, -7.541e-7
0.140, -7.522e-7
0.141, -7.491e-7
0.142, -7.461e-7
0.143, -7.413e-7
0.144, -7.474e-7
0.145, -7.361e-7
0.146, -7.323e-7
0.147, -7.347e-7
0.148, -7.269e-7
0.149, -7.250e-7
0.150, -7.229e-7
0.151, -7.185e-7
0.152, -7.194e-7
0.153, -7.150e-7
0.154, -7.087e-7
0.155, -7.115e-7
0.156, -7.015e-7
0.157, -7.048e-7
0.158, -6.974e-7
0.159, -6.975e-7
0.160, -6.935e-7
0.161, -6.865e-7
0.162, -6.875e-7
0.163, -6.818e-7
0.164, -6.741e-7
0.165, -6.728e-7
0.166, -6.766e-7
0.167, -6.705e-7
0.168, -6.618e-7
0.169, -6.567e-7
0.170, -6.577e-7
0.171, -6.545e-7
0.172, -6.483e-7
0.173, -6.422e-7
0.174, -6.361e-7
0.175, -6.359e-7
0.176, -6.292e-7
0.177, -6.259e-7
0.178, -6.187e-7
0.179, -6.079e-7
0.180, -6.113e-7
0.181, -6.050e-7
0.182, -6.021e-7
0.183, -5.961e-7
0.184, -5.901e-7
0.185, -5.887e-7
0.186, -5.831e-7
0.187, -5.754e-7
0.188, -5.691e-7
0.189, -5.647e-7
0.190, -5.651e-7
0.191, -5.545e-7
0.192, -5.552e-7
0.193, -5.428e-7
0.194, -5.370e-7
0.195, -5.345e-7
0.196, -5.211e-7
0.197, -5.185e-7
0.198, -5.148e-7
0.199, -5.046e-7
0.200, -4.990e-7
0.201, -4.886e-7
0.202, -4.864e-7
0.203, -4.816e-7
0.204, -4.739e-7
0.205, -4.786e-7
0.206, -4.608e-7
0.207, -4.540e-7
0.208, -4.466e-7
0.209, -4.337e-7
0.210, -4.283e-7
0.211, -4.192e-7
0.212, -4.111e-7
0.213, -4.002e-7
0.214, -3.915e-7
0.215, -3.843e-7
0.216, -3.748e-7
0.217, -3.692e-7
0.218, -3.599e-7
0.219, -3.511e-7
0.220, -3.403e-7
0.221, -3.318e-7
0.222, -3.232e-7
0.223, -3.102e-7
0.224, -2.997e-7
0.225, -2.904e-7
0.226, -2.783e-7
0.227, -2.668e-7
0.228, -2.541e-7
0.229, -2.429e-7
0.230, -2.306e-7
0.231, -2.174e-7
0.232, -2.099e-7
0.233, -1.972e-7
0.234, -1.843e-7
0.235, -1.786e-7
0.236, -1.601e-7
0.237, -1.480e-7
0.238, -1.383e-7
0.239, -1.236e-7
0.240, -1.153e-7
0.241, -9.217e-8
0.242, -8.184e-8
0.243, -8.164e-8
0.244, -5.709e-8
0.245, -4.130e-8
0.246, -2.376e-8
0.247, -1.090e-8
0.248, 1.384e-9
0.249, 1.756e-8
0.250, 2.867e-8
0.251, 4.494e-8
0.252, 6.171e-8
0.253, 7.720e-8
0.254, 9.201e-8
0.255, 1.093e-7
0.256, 1.238e-7
0.257, 1.391e-7
0.258, 1.571e-7
0.259, 1.713e-7
0.260, 1.907e-7
0.261, 2.099e-7
0.262, 2.242e-7
0.263, 2.461e-7
0.264, 2.623e-7
0.265, 2.818e-7
0.266, 3.009e-7
0.267, 3.170e-7
0.268, 3.412e-7
0.269, 3.531e-7
0.270, 3.744e-7
0.271, 3.962e-7
0.272, 4.130e-7
0.273, 4.427e-7
0.274, 4.598e-7
0.275, 4.778e-7
0.276, 5.027e-7
0.277, 5.276e-7
0.278, 5.492e-7
0.279, 5.742e-7
0.280, 5.943e-7
0.281, 6.289e-7
0.282, 6.509e-7
0.283, 6.750e-7
0.284, 7.027e-7
0.285, 7.245e-7
0.286, 7.537e-7
0.287, 7.828e-7
0.288, 8.091e-7
0.289, 8.390e-7
0.290, 8.664e-7
0.291, 8.968e-7
0.292, 9.251e-7
0.293, 9.637e-7
0.294, 9.776e-7
0.295, 1.014e-6
0.296, 1.052e-6
0.297, 1.086e-6
0.298, 1.120e-6
0.299, 1.149e-6
0.300, 1.194e-6
0.301, 1.235e-6
0.302, 1.268e-6
0.303, 1.307e-6
0.304, 1.344e-6
0.305, 1.390e-6
0.306, 1.435e-6
0.307, 1.483e-6
0.308, 1.526e-6
0.309, 1.567e-6
0.310, 1.617e-6
0.311, 1.669e-6
0.312, 1.714e-6
0.313, 1.766e-6
0.314, 1.817e-6
0.315, 1.870e-6
0.316, 1.930e-6
0.317, 1.978e-6
0.318, 2.040e-6
0.319, 2.097e-6
0.320, 2.151e-6
0.321, 2.222e-6
0.322, 2.292e-6
0.323, 2.358e-6
0.324, 2.433e-6
0.325, 2.506e-6
0.326, 2.578e-6
0.327, 2.656e-6
0.328, 2.740e-6
0.329, 2.827e-6
0.330, 2.906e-6
0.331, 2.990e-6
0.332, 3.084e-6
0.333, 3.209e-6
0.334, 3.284e-6
0.335, 3.381e-6
0.336, 3.482e-6
0.337, 3.593e-6
0.338, 3.711e-6
0.339, 3.811e-6
0.340, 3.938e-6
0.341, 4.071e-6
0.342, 4.186e-6
0.343, 4.323e-6
0.344, 4.449e-6
0.345, 4.579e-6
0.346, 4.732e-6
0.347, 4.863e-6
0.348, 5.039e-6
0.349, 5.197e-6
0.350, 5.366e-6
0.351, 5.537e-6
0.352, 5.701e-6
0.353, 5.897e-6
0.354, 6.080e-6
0.355, 6.279e-6
0.356, 6.496e-6
0.357, 6.690e-6
0.358, 6.908e-6
0.359, 7.125e-6
0.360, 7.355e-6
0.361, 7.627e-6
0.362, 7.855e-6
0.363, 8.132e-6
0.364, 8.390e-6
0.365, 8.679e-6
0.366, 8.971e-6
0.367, 9.245e-6
0.368, 9.565e-6
0.369, 9.898e-6
0.370, 1.022e-5
0.371, 1.052e-5
0.372, 1.088e-5
0.373, 1.126e-5
0.374, 1.163e-5
0.375, 1.203e-5
0.376, 1.245e-5
0.377, 1.285e-5
0.378, 1.331e-5
0.379, 1.371e-5
0.380, 1.422e-5
0.381, 1.469e-5
0.382, 1.518e-5
0.383, 1.571e-5
0.384, 1.635e-5
0.385, 1.687e-5
0.386, 1.744e-5
0.387, 1.797e-5
0.388, 1.863e-5
0.389, 1.920e-5
0.390, 1.988e-5
0.391, 2.056e-5
0.392, 2.120e-5
0.393, 2.198e-5
0.394, 2.269e-5
0.395, 2.342e-5
0.396, 2.430e-5
0.397, 2.487e-5
0.398, 2.586e-5
0.399, 2.670e-5
0.400, 2.761e-5
0.401, 2.856e-5
0.402, 2.946e-5
0.403, 3.048e-5
0.404, 3.152e-5
0.405, 3.254e-5
0.406, 3.357e-5
0.407, 3.468e-5
0.408, 3.577e-5
0.409, 3.670e-5
0.410, 3.742e-5
0.411, 3.899e-5
0.412, 4.032e-5
0.413, 4.166e-5
0.414, 4.301e-5
0.415, 4.437e-5
0.416, 4.576e-5
0.417, 4.722e-5
0.418, 4.875e-5
0.419, 5.022e-5
0.420, 5.185e-5
0.421, 5.331e-5
0.422, 5.479e-5
0.423, 5.653e-5
0.424, 5.810e-5
0.425, 5.997e-5
0.426, 6.178e-5
0.427, 6.336e-5
0.428, 6.553e-5
0.429, 6.711e-5
0.430, 6.927e-5
0.431, 7.124e-5
0.432, 7.303e-5
0.433, 7.513e-5
0.434, 7.709e-5
0.435, 7.947e-5
0.436, 8.147e-5
0.437, 8.355e-5
0.438, 8.582e-5
0.439, 8.768e-5
0.440, 8.990e-5
0.441, 9.206e-5
0.442, 9.435e-5
0.443, 9.675e-5
0.444, 9.862e-5
0.445, 1.009e-4
0.446, 1.032e-4
0.447, 1.055e-4
0.448, 1.072e-4
0.449, 1.097e-4
0.450, 1.120e-4
0.451, 1.143e-4
0.452, 1.166e-4
0.453, 1.188e-4
0.454, 1.209e-4
0.455, 1.233e-4
0.456, 1.252e-4
0.457, 1.275e-4
0.458, 1.296e-4
0.459, 1.317e-4
0.460, 1.339e-4
0.461, 1.355e-4
0.462, 1.378e-4
0.463, 1.399e-4
0.464, 1.414e-4
0.465, 1.436e-4
0.466, 1.454e-4
0.467, 1.470e-4
0.468, 1.490e-4
0.469, 1.502e-4
0.470, 1.522e-4
0.471, 1.535e-4
0.472, 1.550e-4
0.473, 1.566e-4
0.474, 1.573e-4
0.475, 1.591e-4
0.476, 1.603e-4
0.477, 1.614e-4
0.478, 1.628e-4
0.479, 1.637e-4
0.480, 1.647e-4
0.481, 1.656e-4
0.482, 1.665e-4
0.483, 1.673e-4
0.484, 1.678e-4
0.485, 1.686e-4
0.486, 1.696e-4
0.487, 1.702e-4
0.488, 1.705e-4
0.489, 1.708e-4
0.490, 1.711e-4
0.491, 1.713e-4
0.492, 1.716e-4
0.493, 1.718e-4
0.494, 1.718e-4
0.495, 1.720e-4
0.496, 1.719e-4
0.497, 1.719e-4
0.498, 1.719e-4
0.499, 1.713e-4
0.500, 1.714e-4
0.501, 1.711e-4
0.502, 1.709e-4
0.503, 1.708e-4
0.504, 1.702e-4
0.505, 1.700e-4
0.506, 1.696e-4
0.507, 1.692e-4
0.508, 1.687e-4
0.509, 1.682e-4
0.510, 1.677e-4
0.511, 1.671e-4
0.512, 1.668e-4
0.513, 1.662e-4
0.514, 1.654e-4
0.515, 1.648e-4
0.516, 1.641e-4
0.517, 1.634e-4
0.518, 1.627e-4
0.519, 1.619e-4
0.520, 1.612e-4
0.521, 1.605e-4
0.522, 1.598e-4
0.523, 1.590e-4
0.524, 1.582e-4
0.525, 1.573e-4
0.526, 1.566e-4
0.527, 1.558e-4
0.528, 1.550e-4
0.529, 1.543e-4
0.530, 1.535e-4
0.531, 1.527e-4
0.532, 1.519e-4
0.533, 1.512e-4
0.534, 1.503e-4
0.535, 1.496e-4
0.536, 1.488e-4
0.537, 1.480e-4
0.538, 1.474e-4
0.539, 1.465e-4
0.540, 1.457e-4
0.541, 1.449e-4
0.542, 1.441e-4
0.543, 1.434e-4
0.544, 1.426e-4
0.545, 1.419e-4
0.546, 1.411e-4
0.547, 1.404e-4
0.548, 1.397e-4
0.549, 1.389e-4
0.550, 1.382e-4
0.551, 1.375e-4
0.552, 1.368e-4
0.553, 1.361e-4
0.554, 1.354e-4
0.555, 1.347e-4
0.556, 1.341e-4
0.557, 1.334e-4
0.558, 1.327e-4
0.559, 1.321e-4
0.560, 1.314e-4
0.561, 1.308e-4
0.562, 1.302e-4
0.563, 1.295e-4
0.564, 1.289e-4
0.565, 1.284e-4
0.566, 1.277e-4
0.567, 1.271e-4
0.568, 1.266e-4
0.569, 1.260e-4
0.570, 1.255e-4
0.571, 1.249e-4
0.572, 1.243e-4
0.573, 1.238e-4
0.574, 1.232e-4
0.575, 1.227e-4
0.576, 1.221e-4
0.577, 1.216e-4
0.578, 1.211e-4
0.579, 1.206e-4
0.580, 1.201e-4
0.581, 1.196e-4
0.582, 1.191e-4
0.583, 1.187e-4
0.584, 1.182e-4
0.585, 1.177e-4
0.586, 1.173e-4
0.587, 1.168e-4
0.588, 1.164e-4
0.589, 1.160e-4
0.590, 1.155e-4
0.591, 1.151e-4
0.592, 1.147e-4
0.593, 1.143e-4
0.594, 1.138e-4
0.595, 1.134e-4
0.596, 1.130e-4
0.597, 1.126e-4
0.598, 1.122e-4
0.599, 1.119e-4
0.600, 1.115e-4
0.601, 1.111e-4
0.602, 1.107e-4
0.603, 1.104e-4
0.604, 1.100e-4
0.605, 1.097e-4
0.606, 1.094e-4
0.607, 1.090e-4
0.608, 1.087e-4
0.609, 1.084e-4
0.610, 1.080e-4
0.611, 1.077e-4
0.612, 1.074e-4
0.613, 1.071e-4
0.614, 1.067e-4
0.615, 1.065e-4
0.616, 1.062e-4
0.617, 1.059e-4
0.618, 1.056e-4
0.619, 1.053e-4
0.620, 1.050e-4
0.621, 1.047e-4
0.622, 1.045e-4
0.623, 1.042e-4
0.624, 1.039e-4
0.625, 1.037e-4
0.626, 1.034e-4
0.627, 1.031e-4
0.628, 1.029e-4
0.629, 1.027e-4
0.630, 1.024e-4
0.631, 1.022e-4
0.632, 1.019e-4
0.633, 1.017e-4
0.634, 1.015e-4
0.635, 1.012e-4
0.636, 1.010e-4
0.637, 1.008e-4
0.638, 1.006e-4
0.639, 1.003e-4
0.640, 1.002e-4
0.641, 9.993e-5
0.642, 9.973e-5
0.643, 9.952e-5
0.644, 9.933e-5
0.645, 9.913e-5
0.646, 9.892e-5
0.647, 9.872e-5
0.648, 9.853e-5
0.649, 9.834e-5
0.650, 9.816e-5
0.651, 9.797e-5
0.652, 9.779e-5
0.653, 9.761e-5
0.654, 9.744e-5
0.655, 9.727e-5
0.656, 9.709e-5
0.657, 9.692e-5
0.658, 9.675e-5
0.659, 9.657e-5
0.660, 9.640e-5
0.661, 9.624e-5
0.662, 9.608e-5
0.663, 9.593e-5
0.664, 9.576e-5
0.665, 9.560e-5
0.666, 9.546e-5
0.667, 9.531e-5
0.668, 9.517e-5
0.669, 9.503e-5
0.670, 9.488e-5
0.671, 9.475e-5
0.672, 9.461e-5
0.673, 9.449e-5
0.674, 9.433e-5
0.675, 9.419e-5
0.676, 9.405e-5
0.677, 9.391e-5
0.678, 9.375e-5
0.679, 9.361e-5
0.680, 9.348e-5
0.681, 9.335e-5
0.682, 9.323e-5
0.683, 9.311e-5
0.684, 9.300e-5
0.685, 9.289e-5
0.686, 9.277e-5
0.687, 9.266e-5
0.688, 9.256e-5
0.689, 9.245e-5
0.690, 9.234e-5
0.691, 9.223e-5
0.692, 9.210e-5
0.693, 9.199e-5
0.694, 9.187e-5
0.695, 9.175e-5
0.696, 9.162e-5
0.697, 9.151e-5
0.698, 9.141e-5
0.699, 9.130e-5
0.700, 9.120e-5
0.701, 9.110e-5
0.702, 9.100e-5
0.703, 9.090e-5
0.704, 9.080e-5
0.705, 9.073e-5
0.706, 9.062e-5
0.707, 9.053e-5
0.708, 9.044e-5
0.709, 9.034e-5
0.710, 9.025e-5
0.711, 9.016e-5
0.712, 9.007e-5
0.713, 8.999e-5
0.714, 8.989e-5
0.715, 8.980e-5
0.716, 8.972e-5
0.717, 8.964e-5
0.718, 8.955e-5
0.719, 8.945e-5
0.720, 8.938e-5
0.721, 8.930e-5
0.722, 8.922e-5
0.723, 8.914e-5
0.724, 8.905e-5
0.725, 8.898e-5
0.726, 8.889e-5
0.727, 8.881e-5
0.728, 8.873e-5
0.729, 8.864e-5
0.730, 8.858e-5
0.731, 8.851e-5
0.732, 8.845e-5
0.733, 8.838e-5
0.734, 8.830e-5
0.735, 8.824e-5
0.736, 8.817e-5
0.737, 8.810e-5
0.738, 8.803e-5
0.739, 8.794e-5
0.740, 8.789e-5
0.741, 8.782e-5
0.742, 8.776e-5
0.743, 8.768e-5
0.744, 8.761e-5
0.745, 8.755e-5
0.746, 8.748e-5
0.747, 8.740e-5
0.748, 8.735e-5
0.749, 8.728e-5
0.750, 8.723e-5
0.751, 8.717e-5
0.752, 8.712e-5
0.753, 8.706e-5
0.754, 8.701e-5
0.755, 8.694e-5
0.756, 8.689e-5
0.757, 8.683e-5
0.758, 8.678e-5
0.759, 8.672e-5
0.760, 8.667e-5
0.761, 8.661e-5
0.762, 8.656e-5
0.763, 8.650e-5
0.764, 8.644e-5
0.765, 8.639e-5
0.766, 8.633e-5
0.767, 8.628e-5
0.768, 8.623e-5
0.769, 8.617e-5
0.770, 8.613e-5
0.771, 8.606e-5
0.772, 8.602e-5
0.773, 8.598e-5
0.774, 8.592e-5
0.775, 8.587e-5
0.776, 8.582e-5
0.777, 8.579e-5
0.778, 8.575e-5
0.779, 8.570e-5
0.780, 8.566e-5
0.781, 8.561e-5
0.782, 8.558e-5
0.783, 8.555e-5
0.784, 8.549e-5
0.785, 8.545e-5
0.786, 8.540e-5
0.787, 8.536e-5
0.788, 8.532e-5
0.789, 8.526e-5
0.790, 8.522e-5
0.791, 8.518e-5
0.792, 8.514e-5
0.793, 8.512e-5
0.794, 8.507e-5
0.795, 8.503e-5
0.796, 8.499e-5
0.797, 8.496e-5
0.798, 8.492e-5
0.799, 8.489e-5
0.800, 8.485e-5
0.801, 8.481e-5
0.802, 8.479e-5
0.803, 8.474e-5
0.804, 8.471e-5
0.805, 8.468e-5
0.806, 8.462e-5
0.807, 8.460e-5
0.808, 8.456e-5
0.809, 8.453e-5
0.810, 8.451e-5
0.811, 8.447e-5
0.812, 8.445e-5
0.813, 8.442e-5
0.814, 8.440e-5
0.815, 8.438e-5
0.816, 8.433e-5
0.817, 8.431e-5
0.818, 8.428e-5
0.819, 8.420e-5
0.820, 8.421e-5
0.821, 8.418e-5
0.822, 8.415e-5
0.823, 8.413e-5
0.824, 8.410e-5
0.825, 8.408e-5
0.826, 8.405e-5
0.827, 8.402e-5
0.828, 8.400e-5
0.829, 8.398e-5
0.830, 8.395e-5
0.831, 8.393e-5
0.832, 8.389e-5
0.833, 8.389e-5
0.834, 8.386e-5
0.835, 8.383e-5
0.836, 8.381e-5
0.837, 8.379e-5
0.838, 8.375e-5
0.839, 8.374e-5
0.840, 8.372e-5
0.841, 8.371e-5
0.842, 8.370e-5
0.843, 8.368e-5
0.844, 8.366e-5
0.845, 8.367e-5
0.846, 8.364e-5
0.847, 8.363e-5
0.848, 8.361e-5
0.849, 8.358e-5
0.850, 8.356e-5
0.851, 8.352e-5
0.852, 8.351e-5
0.853, 8.348e-5
0.854, 8.345e-5
0.855, 8.344e-5
0.856, 8.341e-5
0.857, 8.340e-5
0.858, 8.339e-5
0.859, 8.337e-5
0.860, 8.337e-5
0.861, 8.336e-5
0.862, 8.336e-5
0.863, 8.335e-5
0.864, 8.333e-5
0.865, 8.332e-5
0.866, 8.331e-5
0.867, 8.330e-5
0.868, 8.328e-5
0.869, 8.325e-5
0.870, 8.324e-5
0.871, 8.322e-5
0.872, 8.323e-5
0.873, 8.321e-5
0.874, 8.320e-5
0.875, 8.319e-5
0.876, 8.318e-5
0.877, 8.318e-5
0.878, 8.317e-5
0.879, 8.315e-5
0.880, 8.315e-5
0.881, 8.314e-5
0.882, 8.314e-5
0.883, 8.310e-5
0.884, 8.311e-5
0.885, 8.311e-5
0.886, 8.309e-5
0.887, 8.309e-5
0.888, 8.308e-5
0.889, 8.308e-5
0.890, 8.307e-5
0.891, 8.306e-5
0.892, 8.307e-5
0.893, 8.307e-5
0.894, 8.305e-5
0.895, 8.306e-5
0.896, 8.306e-5
0.897, 8.305e-5
0.898, 8.304e-5
0.899, 8.301e-5
0.900, 8.302e-5
0.901, 8.301e-5
0.902, 8.300e-5
0.903, 8.301e-5
0.904, 8.301e-5
0.905, 8.302e-5
0.906, 8.302e-5
0.907, 8.303e-5
0.908, 8.302e-5
0.909, 8.301e-5
0.910, 8.302e-5
0.911, 8.302e-5
0.912, 8.301e-5
0.913, 8.302e-5
0.914, 8.301e-5
0.915, 8.301e-5
0.916, 8.301e-5
0.917, 8.301e-5
0.918, 8.301e-5
0.919, 8.302e-5
0.920, 8.302e-5
0.921, 8.304e-5
0.922, 8.304e-5
0.923, 8.305e-5
0.924, 8.305e-5
0.925, 8.307e-5
0.926, 8.306e-5
0.927, 8.307e-5
0.928, 8.307e-5
0.929, 8.306e-5
0.930, 8.307e-5
0.931, 8.305e-5
0.932, 8.307e-5
0.933, 8.308e-5
0.934, 8.307e-5
0.935, 8.309e-5
0.936, 8.311e-5
0.937, 8.312e-5
0.938, 8.314e-5
0.939, 8.314e-5
0.940, 8.317e-5
0.941, 8.317e-5
0.942, 8.317e-5
0.943, 8.318e-5
0.944, 8.319e-5
0.945, 8.322e-5
0.946, 8.322e-5
0.947, 8.325e-5
0.948, 8.324e-5
0.949, 8.326e-5
0.950, 8.327e-5
0.951, 8.329e-5
0.952, 8.329e-5
0.953, 8.331e-5
0.954, 8.333e-5
0.955, 8.335e-5
0.956, 8.337e-5
0.957, 8.338e-5
0.958, 8.339e-5
0.959, 8.340e-5
0.960, 8.341e-5
0.961, 8.343e-5
0.962, 8.344e-5
0.963, 8.345e-5
0.964, 8.347e-5
0.965, 8.352e-5
0.966, 8.352e-5
0.967, 8.356e-5
0.968, 8.357e-5
0.969, 8.360e-5
0.970, 8.362e-5
0.971, 8.363e-5
0.972, 8.365e-5
0.973, 8.367e-5
0.974, 8.369e-5
0.975, 8.373e-5
0.976, 8.374e-5
0.977, 8.378e-5
0.978, 8.380e-5
0.979, 8.382e-5
0.980, 8.386e-5
0.981, 8.388e-5
0.982, 8.391e-5
0.983, 8.394e-5
0.984, 8.396e-5
0.985, 8.399e-5
0.986, 8.402e-5
0.987, 8.405e-5
0.988, 8.408e-5
0.989, 8.411e-5
0.990, 8.414e-5
0.991, 8.417e-5
0.992, 8.421e-5
0.993, 8.424e-5
0.994, 8.427e-5
0.995, 8.432e-5
0.996, 8.437e-5
0.997, 8.443e-5
0.998, 8.447e-5
0.999, 8.451e-5
1.000, 8.377e-5
0.999, 8.321e-5
0.998, 8.297e-5
0.997, 8.275e-5
0.996, 8.256e-5
0.995, 8.241e-5
0.994, 8.226e-5
0.993, 8.212e-5
0.992, 8.199e-5
0.991, 8.186e-5
0.990, 8.175e-5
0.989, 8.164e-5
0.988, 8.153e-5
0.987, 8.142e-5
0.986, 8.134e-5
0.985, 8.125e-5
0.984, 8.115e-5
0.983, 8.107e-5
0.982, 8.098e-5
0.981, 8.090e-5
0.980, 8.082e-5
0.979, 8.073e-5
0.978, 8.065e-5
0.977, 8.055e-5
0.976, 8.049e-5
0.975, 8.042e-5
0.974, 8.033e-5
0.973, 8.027e-5
0.972, 8.020e-5
0.971, 8.015e-5
0.970, 8.009e-5
0.969, 8.001e-5
0.968, 7.995e-5
0.967, 7.989e-5
0.966, 7.984e-5
0.965, 7.978e-5
0.964, 7.971e-5
0.963, 7.965e-5
0.962, 7.959e-5
0.961, 7.953e-5
0.960, 7.950e-5
0.959, 7.943e-5
0.958, 7.938e-5
0.957, 7.933e-5
0.956, 7.928e-5
0.955, 7.922e-5
0.954, 7.919e-5
0.953, 7.915e-5
0.952, 7.910e-5
0.951, 7.906e-5
0.950, 7.902e-5
0.949, 7.897e-5
0.948, 7.892e-5
0.947, 7.887e-5
0.946, 7.884e-5
0.945, 7.878e-5
0.944, 7.874e-5
0.943, 7.870e-5
0.942, 7.866e-5
0.941, 7.862e-5
0.940, 7.859e-5
0.939, 7.854e-5
0.938, 7.852e-5
0.937, 7.848e-5
0.936, 7.844e-5
0.935, 7.843e-5
0.934, 7.839e-5
0.933, 7.835e-5
0.932, 7.831e-5
0.931, 7.828e-5
0.930, 7.826e-5
0.929, 7.822e-5
0.928, 7.818e-5
0.927, 7.814e-5
0.926, 7.811e-5
0.925, 7.809e-5
0.924, 7.805e-5
0.923, 7.801e-5
0.922, 7.797e-5
0.921, 7.796e-5
0.920, 7.794e-5
0.919, 7.791e-5
0.918, 7.789e-5
0.917, 7.785e-5
0.916, 7.783e-5
0.915, 7.781e-5
0.914, 7.778e-5
0.913, 7.775e-5
0.912, 7.773e-5
0.911, 7.770e-5
0.910, 7.768e-5
0.909, 7.766e-5
0.908, 7.763e-5
0.907, 7.760e-5
0.906, 7.758e-5
0.905, 7.755e-5
0.904, 7.752e-5
0.903, 7.751e-5
0.902, 7.748e-5
0.901, 7.747e-5
0.900, 7.744e-5
0.899, 7.741e-5
0.898, 7.740e-5
0.897, 7.737e-5
0.896, 7.734e-5
0.895, 7.733e-5
0.894, 7.731e-5
0.893, 7.730e-5
0.892, 7.728e-5
0.891, 7.726e-5
0.890, 7.725e-5
0.889, 7.722e-5
0.888, 7.722e-5
0.887, 7.720e-5
0.886, 7.717e-5
0.885, 7.716e-5
0.884, 7.713e-5
0.883, 7.712e-5
0.882, 7.710e-5
0.881, 7.707e-5
0.880, 7.705e-5
0.879, 7.703e-5
0.878, 7.702e-5
0.877, 7.701e-5
0.876, 7.699e-5
0.875, 7.698e-5
0.874, 7.697e-5
0.873, 7.696e-5
0.872, 7.694e-5
0.871, 7.694e-5
0.870, 7.693e-5
0.869, 7.690e-5
0.868, 7.688e-5
0.867, 7.686e-5
0.866, 7.684e-5
0.865, 7.682e-5
0.864, 7.679e-5
0.863, 7.678e-5
0.862, 7.677e-5
0.861, 7.677e-5
0.860, 7.675e-5
0.859, 7.674e-5
0.858, 7.675e-5
0.857, 7.672e-5
0.856, 7.671e-5
0.855, 7.670e-5
0.854, 7.668e-5
0.853, 7.668e-5
0.852, 7.665e-5
0.851, 7.665e-5
0.850, 7.664e-5
0.849, 7.662e-5
0.848, 7.660e-5
0.847, 7.659e-5
0.846, 7.658e-5
0.845, 7.656e-5
0.844, 7.654e-5
0.843, 7.653e-5
0.842, 7.653e-5
0.841, 7.651e-5
0.840, 7.651e-5
0.839, 7.649e-5
0.838, 7.649e-5
0.837, 7.647e-5
0.836, 7.646e-5
0.835, 7.645e-5
0.834, 7.644e-5
0.833, 7.642e-5
0.832, 7.642e-5
0.831, 7.640e-5
0.830, 7.640e-5
0.829, 7.638e-5
0.828, 7.638e-5
0.827, 7.636e-5
0.826, 7.636e-5
0.825, 7.635e-5
0.824, 7.632e-5
0.823, 7.631e-5
0.822, 7.630e-5
0.821, 7.630e-5
0.820, 7.630e-5
0.819, 7.629e-5
0.818, 7.628e-5
0.817, 7.626e-5
0.816, 7.625e-5
0.815, 7.624e-5
0.814, 7.623e-5
0.813, 7.623e-5
0.812, 7.620e-5
0.811, 7.621e-5
0.810, 7.619e-5
0.809, 7.617e-5
0.808, 7.617e-5
0.807, 7.617e-5
0.806, 7.615e-5
0.805, 7.615e-5
0.804, 7.613e-5
0.803, 7.612e-5
0.802, 7.611e-5
0.801, 7.610e-5
0.800, 7.609e-5
0.799, 7.608e-5
0.798, 7.607e-5
0.797, 7.606e-5
0.796, 7.605e-5
0.795, 7.605e-5
0.794, 7.602e-5
0.793, 7.603e-5
0.792, 7.601e-5
0.791, 7.602e-5
0.790, 7.601e-5
0.789, 7.599e-5
0.788, 7.598e-5
0.787, 7.597e-5
0.786, 7.596e-5
0.785, 7.595e-5
0.784, 7.594e-5
0.783, 7.594e-5
0.782, 7.592e-5
0.781, 7.594e-5
0.780, 7.592e-5
0.779, 7.590e-5
0.778, 7.591e-5
0.777, 7.589e-5
0.776, 7.589e-5
0.775, 7.588e-5
0.774, 7.587e-5
0.773, 7.586e-5
0.772, 7.584e-5
0.771, 7.585e-5
0.770, 7.583e-5
0.769, 7.581e-5
0.768, 7.581e-5
0.767, 7.581e-5
0.766, 7.579e-5
0.765, 7.580e-5
0.764, 7.577e-5
0.763, 7.577e-5
0.762, 7.577e-5
0.761, 7.577e-5
0.760, 7.576e-5
0.759, 7.573e-5
0.758, 7.574e-5
0.757, 7.573e-5
0.756, 7.572e-5
0.755, 7.572e-5
0.754, 7.570e-5
0.753, 7.568e-5
0.752, 7.568e-5
0.751, 7.567e-5
0.750, 7.567e-5
0.749, 7.566e-5
0.748, 7.566e-5
0.747, 7.564e-5
0.746, 7.564e-5
0.745, 7.563e-5
0.744, 7.563e-5
0.743, 7.561e-5
0.742, 7.561e-5
0.741, 7.560e-5
0.740, 7.560e-5
0.739, 7.559e-5
0.738, 7.559e-5
0.737, 7.557e-5
0.736, 7.557e-5
0.735, 7.556e-5
0.734, 7.555e-5
0.733, 7.554e-5
0.732, 7.552e-5
0.731, 7.551e-5
0.730, 7.552e-5
0.729, 7.550e-5
0.728, 7.549e-5
0.727, 7.547e-5
0.726, 7.547e-5
0.725, 7.547e-5
0.724, 7.547e-5
0.723, 7.546e-5
0.722, 7.545e-5
0.721, 7.544e-5
0.720, 7.545e-5
0.719, 7.544e-5
0.718, 7.543e-5
0.717, 7.541e-5
0.716, 7.540e-5
0.715, 7.540e-5
0.714, 7.538e-5
0.713, 7.537e-5
0.712, 7.536e-5
0.711, 7.535e-5
0.710, 7.535e-5
0.709, 7.533e-5
0.708, 7.533e-5
0.707, 7.532e-5
0.706, 7.532e-5
0.705, 7.529e-5
0.704, 7.530e-5
0.703, 7.529e-5
0.702, 7.528e-5
0.701, 7.528e-5
0.700, 7.526e-5
0.699, 7.525e-5
0.698, 7.526e-5
0.697, 7.525e-5
0.696, 7.524e-5
0.695, 7.522e-5
0.694, 7.521e-5
0.693, 7.521e-5
0.692, 7.518e-5
0.691, 7.517e-5
0.690, 7.516e-5
0.689, 7.514e-5
0.688, 7.514e-5
0.687, 7.513e-5
0.686, 7.513e-5
0.685, 7.512e-5
0.684, 7.510e-5
0.683, 7.511e-5
0.682, 7.509e-5
0.681, 7.508e-5
0.680, 7.508e-5
0.679, 7.508e-5
0.678, 7.507e-5
0.677, 7.505e-5
0.676, 7.503e-5
0.675, 7.502e-5
0.674, 7.500e-5
0.673, 7.499e-5
0.672, 7.496e-5
0.671, 7.496e-5
0.670, 7.494e-5
0.669, 7.494e-5
0.668, 7.493e-5
0.667, 7.492e-5
0.666, 7.493e-5
0.665, 7.491e-5
0.664, 7.491e-5
0.663, 7.488e-5
0.662, 7.486e-5
0.661, 7.485e-5
0.660, 7.482e-5
0.659, 7.480e-5
0.658, 7.480e-5
0.657, 7.477e-5
0.656, 7.477e-5
0.655, 7.474e-5
0.654, 7.472e-5
0.653, 7.472e-5
0.652, 7.470e-5
0.651, 7.468e-5
0.650, 7.467e-5
0.649, 7.465e-5
0.648, 7.464e-5
0.647, 7.463e-5
0.646, 7.461e-5
0.645, 7.458e-5
0.644, 7.456e-5
0.643, 7.454e-5
0.642, 7.451e-5
0.641, 7.448e-5
0.640, 7.443e-5
0.639, 7.442e-5
0.638, 7.440e-5
0.637, 7.439e-5
0.636, 7.437e-5
0.635, 7.434e-5
0.634, 7.432e-5
0.633, 7.430e-5
0.632, 7.426e-5
0.631, 7.423e-5
0.630, 7.418e-5
0.629, 7.416e-5
0.628, 7.413e-5
0.627, 7.409e-5
0.626, 7.407e-5
0.625, 7.401e-5
0.624, 7.398e-5
0.623, 7.395e-5
0.622, 7.391e-5
0.621, 7.387e-5
0.620, 7.383e-5
0.619, 7.380e-5
0.618, 7.376e-5
0.617, 7.371e-5
0.616, 7.367e-5
0.615, 7.365e-5
0.614, 7.360e-5
0.613, 7.353e-5
0.612, 7.345e-5
0.611, 7.339e-5
0.610, 7.333e-5
0.609, 7.326e-5
0.608, 7.320e-5
0.607, 7.313e-5
0.606, 7.308e-5
0.605, 7.301e-5
0.604, 7.294e-5
0.603, 7.288e-5
0.602, 7.282e-5
0.601, 7.273e-5
0.600, 7.263e-5
0.599, 7.255e-5
0.598, 7.245e-5
0.597, 7.235e-5
0.596, 7.225e-5
0.595, 7.215e-5
0.594, 7.205e-5
0.593, 7.195e-5
0.592, 7.184e-5
0.591, 7.173e-5
0.590, 7.161e-5
0.589, 7.146e-5
0.588, 7.135e-5
0.587, 7.122e-5
0.586, 7.110e-5
0.585, 7.094e-5
0.584, 7.079e-5
0.583, 7.064e-5
0.582, 7.047e-5
0.581, 7.032e-5
0.580, 7.011e-5
0.579, 6.993e-5
0.578, 6.975e-5
0.577, 6.956e-5
0.576, 6.940e-5
0.575, 6.918e-5
0.574, 6.898e-5
0.573, 6.878e-5
0.572, 6.852e-5
0.571, 6.830e-5
0.570, 6.806e-5
0.569, 6.779e-5
0.568, 6.752e-5
0.567, 6.722e-5
0.566, 6.696e-5
0.565, 6.665e-5
0.564, 6.634e-5
0.563, 6.605e-5
0.562, 6.570e-5
0.561, 6.538e-5
0.560, 6.502e-5
0.559, 6.465e-5
0.558, 6.431e-5
0.557, 6.390e-5
0.556, 6.347e-5
0.555, 6.304e-5
0.554, 6.262e-5
0.553, 6.215e-5
0.552, 6.166e-5
0.551, 6.122e-5
0.550, 6.072e-5
0.549, 6.018e-5
0.548, 5.965e-5
0.547, 5.906e-5
0.546, 5.853e-5
0.545, 5.791e-5
0.544, 5.734e-5
0.543, 5.665e-5
0.542, 5.594e-5
0.541, 5.531e-5
0.540, 5.462e-5
0.539, 5.388e-5
0.538, 5.300e-5
0.537, 5.217e-5
0.536, 5.137e-5
0.535, 5.057e-5
0.534, 4.971e-5
0.533, 4.886e-5
0.532, 4.786e-5
0.531, 4.697e-5
0.530, 4.598e-5
0.529, 4.500e-5
0.528, 4.397e-5
0.527, 4.281e-5
0.526, 4.171e-5
0.525, 4.084e-5
0.524, 3.957e-5
0.523, 3.831e-5
0.522, 3.700e-5
0.521, 3.573e-5
0.520, 3.434e-5
0.519, 3.303e-5
0.518, 3.179e-5
0.517, 3.016e-5
0.516, 2.881e-5
0.515, 2.721e-5
0.514, 2.575e-5
0.513, 2.426e-5
0.512, 2.229e-5
0.511, 2.080e-5
0.510, 1.907e-5
0.509, 1.727e-5
0.508, 1.568e-5
0.507, 1.375e-5
0.506, 1.205e-5
0.505, 9.900e-6
0.504, 8.175e-6
0.503, 6.146e-6
0.502, 4.084e-6
0.501, 2.272e-6
0.500, 1.249e-8
0.499, -1.471e-6
0.498, -3.766e-6
0.497, -6.025e-6
0.496, -8.287e-6
0.495, -1.052e-5
0.494, -1.273e-5
0.493, -1.489e-5
0.492, -1.717e-5
0.491, -1.936e-5
0.490, -2.182e-5
0.489, -2.402e-5
0.488, -2.618e-5
0.487, -2.902e-5
0.486, -3.143e-5
0.485, -3.359e-5
0.484, -3.572e-5
0.483, -3.815e-5
0.482, -4.049e-5
0.481, -4.268e-5
0.480, -4.498e-5
0.479, -4.748e-5
0.478, -4.970e-5
0.477, -5.211e-5
0.476, -5.418e-5
0.475, -5.655e-5
0.474, -5.824e-5
0.473, -6.049e-5
0.472, -6.275e-5
0.471, -6.484e-5
0.470, -6.708e-5
0.469, -6.887e-5
0.468, -7.100e-5
0.467, -7.279e-5
0.466, -7.479e-5
0.465, -7.675e-5
0.464, -7.815e-5
0.463, -8.025e-5
0.462, -8.179e-5
0.461, -8.288e-5
0.460, -8.503e-5
0.459, -8.617e-5
0.458, -8.792e-5
0.457, -8.900e-5
0.456, -9.020e-5
0.455, -9.171e-5
0.454, -9.266e-5
0.453, -9.364e-5
0.452, -9.504e-5
0.451, -9.562e-5
0.450, -9.657e-5
0.449, -9.734e-5
0.448, -9.756e-5
0.447, -9.873e-5
0.446, -9.919e-5
0.445, -9.980e-5
0.444, -1.003e-4
0.443, -1.007e-4
0.442, -1.012e-4
0.441, -1.014e-4
0.440, -1.017e-4
0.439, -1.019e-4
0.438, -1.021e-4
0.437, -1.020e-4
0.436, -1.022e-4
0.435, -1.026e-4
0.434, -1.022e-4
0.433, -1.020e-4
0.432, -1.017e-4
0.431, -1.014e-4
0.430, -1.013e-4
0.429, -1.008e-4
0.428, -1.006e-4
0.427, -1.001e-4
0.426, -9.964e-5
0.425, -9.930e-5
0.424, -9.862e-5
0.423, -9.810e-5
0.422, -9.749e-5
0.421, -9.686e-5
0.420, -9.643e-5
0.419, -9.570e-5
0.418, -9.508e-5
0.417, -9.445e-5
0.416, -9.367e-5
0.415, -9.310e-5
0.414, -9.231e-5
0.413, -9.150e-5
0.412, -9.089e-5
0.411, -9.000e-5
0.410, -8.863e-5
0.409, -8.800e-5
0.408, -8.735e-5
0.407, -8.669e-5
0.406, -8.586e-5
0.405, -8.508e-5
0.404, -8.429e-5
0.403, -8.346e-5
0.402, -8.269e-5
0.401, -8.181e-5
0.400, -8.104e-5
0.399, -8.025e-5
0.398, -7.942e-5
0.397, -7.848e-5
0.396, -7.774e-5
0.395, -7.695e-5
0.394, -7.611e-5
0.393, -7.530e-5
0.392, -7.453e-5
0.391, -7.372e-5
0.390, -7.290e-5
0.389, -7.209e-5
0.388, -7.134e-5
0.387, -7.055e-5
0.386, -6.974e-5
0.385, -6.898e-5
0.384, -6.833e-5
0.383, -6.755e-5
0.382, -6.677e-5
0.381, -6.599e-5
0.380, -6.529e-5
0.379, -6.455e-5
0.378, -6.383e-5
0.377, -6.310e-5
0.376, -6.237e-5
0.375, -6.172e-5
0.374, -6.100e-5
0.373, -6.031e-5
0.372, -5.962e-5
0.371, -5.889e-5
0.370, -5.827e-5
0.369, -5.764e-5
0.368, -5.699e-5
0.367, -5.637e-5
0.366, -5.572e-5
0.365, -5.512e-5
0.364, -5.452e-5
0.363, -5.390e-5
0.362, -5.332e-5
0.361, -5.272e-5
0.360, -5.216e-5
0.359, -5.157e-5
0.358, -5.100e-5
0.357, -5.046e-5
0.356, -4.991e-5
0.355, -4.937e-5
0.354, -4.884e-5
0.353, -4.832e-5
0.352, -4.780e-5
0.351, -4.729e-5
0.350, -4.678e-5
0.349, -4.628e-5
0.348, -4.581e-5
0.347, -4.533e-5
0.346, -4.482e-5
0.345, -4.437e-5
0.344, -4.391e-5
0.343, -4.346e-5
0.342, -4.302e-5
0.341, -4.256e-5
0.340, -4.214e-5
0.339, -4.169e-5
0.338, -4.128e-5
0.337, -4.086e-5
0.336, -4.044e-5
0.335, -4.004e-5
0.334, -3.964e-5
0.333, -3.927e-5
0.332, -3.887e-5
0.331, -3.848e-5
0.330, -3.811e-5
0.329, -3.773e-5
0.328, -3.737e-5
0.327, -3.701e-5
0.326, -3.665e-5
0.325, -3.630e-5
0.324, -3.595e-5
0.323, -3.561e-5
0.322, -3.528e-5
0.321, -3.494e-5
0.320, -3.461e-5
0.319, -3.429e-5
0.318, -3.397e-5
0.317, -3.366e-5
0.316, -3.335e-5
0.315, -3.305e-5
0.314, -3.275e-5
0.313, -3.245e-5
0.312, -3.216e-5
0.311, -3.187e-5
0.310, -3.159e-5
0.309, -3.130e-5
0.308, -3.103e-5
0.307, -3.076e-5
0.306, -3.047e-5
0.305, -3.021e-5
0.304, -2.994e-5
0.303, -2.968e-5
0.302, -2.943e-5
0.301, -2.917e-5
0.300, -2.893e-5
0.299, -2.868e-5
0.298, -2.844e-5
0.297, -2.820e-5
0.296, -2.796e-5
0.295, -2.772e-5
0.294, -2.749e-5
0.293, -2.726e-5
0.292, -2.704e-5
0.291, -2.681e-5
0.290, -2.659e-5
0.289, -2.637e-5
0.288, -2.616e-5
0.287, -2.595e-5
0.286, -2.574e-5
0.285, -2.553e-5
0.284, -2.534e-5
0.283, -2.514e-5
0.282, -2.495e-5
0.281, -2.474e-5
0.280, -2.455e-5
0.279, -2.435e-5
0.278, -2.417e-5
0.277, -2.397e-5
0.276, -2.379e-5
0.275, -2.361e-5
0.274, -2.342e-5
0.273, -2.325e-5
0.272, -2.307e-5
0.271, -2.289e-5
0.270, -2.272e-5
0.269, -2.254e-5
0.268, -2.238e-5
0.267, -2.222e-5
0.266, -2.205e-5
0.265, -2.189e-5
0.264, -2.173e-5
0.263, -2.157e-5
0.262, -2.141e-5
0.261, -2.126e-5
0.260, -2.111e-5
0.259, -2.095e-5
0.258, -2.080e-5
0.257, -2.065e-5
0.256, -2.050e-5
0.255, -2.036e-5
0.254, -2.022e-5
0.253, -2.008e-5
0.252, -1.994e-5
0.251, -1.981e-5
0.250, -1.967e-5
0.249, -1.954e-5
0.248, -1.941e-5
0.247, -1.927e-5
0.246, -1.913e-5
0.245, -1.901e-5
0.244, -1.888e-5
0.243, -1.875e-5
0.242, -1.862e-5
0.241, -1.850e-5
0.240, -1.838e-5
0.239, -1.826e-5
0.238, -1.814e-5
0.237, -1.802e-5
0.236, -1.790e-5
0.235, -1.779e-5
0.234, -1.767e-5
0.233, -1.756e-5
0.232, -1.745e-5
0.231, -1.734e-5
0.230, -1.723e-5
0.229, -1.712e-5
0.228, -1.701e-5
0.227, -1.691e-5
0.226, -1.679e-5
0.225, -1.669e-5
0.224, -1.659e-5
0.223, -1.649e-5
0.222, -1.639e-5
0.221, -1.629e-5
0.220, -1.619e-5
0.219, -1.609e-5
0.218, -1.599e-5
0.217, -1.590e-5
0.216, -1.580e-5
0.215, -1.570e-5
0.214, -1.560e-5
0.213, -1.551e-5
0.212, -1.542e-5
0.211, -1.533e-5
0.210, -1.524e-5
0.209, -1.515e-5
0.208, -1.507e-5
0.207, -1.498e-5
0.206, -1.490e-5
0.205, -1.480e-5
0.204, -1.472e-5
0.203, -1.464e-5
0.202, -1.456e-5
0.201, -1.448e-5
0.200, -1.439e-5
0.199, -1.431e-5
0.198, -1.423e-5
0.197, -1.415e-5
0.196, -1.408e-5
0.195, -1.400e-5
0.194, -1.392e-5
0.193, -1.385e-5
0.192, -1.377e-5
0.191, -1.370e-5
0.190, -1.363e-5
0.189, -1.355e-5
0.188, -1.349e-5
0.187, -1.341e-5
0.186, -1.334e-5
0.185, -1.327e-5
0.184, -1.320e-5
0.183, -1.313e-5
0.182, -1.306e-5
0.181, -1.299e-5
0.180, -1.293e-5
0.179, -1.287e-5
0.178, -1.279e-5
0.177, -1.273e-5
0.176, -1.266e-5
0.175, -1.260e-5
0.174, -1.254e-5
0.173, -1.248e-5
0.172, -1.241e-5
0.171, -1.235e-5
0.170, -1.229e-5
0.169, -1.223e-5
0.168, -1.217e-5
0.167, -1.210e-5
0.166, -1.205e-5
0.165, -1.199e-5
0.164, -1.193e-5
0.163, -1.187e-5
0.162, -1.181e-5
0.161, -1.176e-5
0.160, -1.170e-5
0.159, -1.165e-5
0.158, -1.159e-5
0.157, -1.154e-5
0.156, -1.148e-5
0.155, -1.142e-5
0.154, -1.137e-5
0.153, -1.132e-5
0.152, -1.127e-5
0.151, -1.122e-5
0.150, -1.117e-5
0.149, -1.111e-5
0.148, -1.106e-5
0.147, -1.102e-5
0.146, -1.096e-5
0.145, -1.091e-5
0.144, -1.086e-5
0.143, -1.081e-5
0.142, -1.076e-5
0.141, -1.070e-5
0.140, -1.066e-5
0.139, -1.062e-5
0.138, -1.057e-5
0.137, -1.053e-5
0.136, -1.047e-5
0.135, -1.043e-5
0.134, -1.039e-5
0.133, -1.034e-5
0.132, -1.030e-5
0.131, -1.025e-5
0.130, -1.021e-5
0.129, -1.017e-5
0.128, -1.013e-5
0.127, -1.008e-5
0.126, -1.003e-5
0.125, -9.992e-6
0.124, -9.953e-6
0.123, -9.910e-6
0.122, -9.861e-6
0.121, -9.826e-6
0.120, -9.789e-6
0.119, -9.747e-6
0.118, -9.708e-6
0.117, -9.667e-6
0.116, -9.625e-6
0.115, -9.593e-6
0.114, -9.551e-6
0.113, -9.510e-6
0.112, -9.472e-6
0.111, -9.436e-6
0.110, -9.402e-6
0.109, -9.359e-6
0.108, -9.323e-6
0.107, -9.285e-6
0.106, -9.248e-6
0.105, -9.219e-6
0.104, -9.178e-6
0.103, -9.145e-6
0.102, -9.108e-6
0.101, -9.076e-6
0.100, -9.042e-6
0.099, -9.003e-6
0.098, -8.967e-6
0.097, -8.935e-6
0.096, -8.903e-6
0.095, -8.870e-6
0.094, -8.835e-6
0.093, -8.801e-6
0.092, -8.769e-6
0.091, -8.738e-6
0.090, -8.696e-6
0.089, -8.669e-6
0.088, -8.639e-6
0.087, -8.610e-6
0.086, -8.581e-6
0.085, -8.547e-6
0.084, -8.518e-6
0.083, -8.488e-6
0.082, -8.456e-6
0.081, -8.427e-6
0.080, -8.401e-6
0.079, -8.369e-6
0.078, -8.341e-6
0.077, -8.318e-6
0.076, -8.286e-6
0.075, -8.259e-6
0.074, -8.227e-6
0.073, -8.201e-6
0.072, -8.172e-6
0.071, -8.145e-6
0.070, -8.123e-6
0.069, -8.097e-6
0.068, -8.067e-6
0.067, -8.037e-6
0.066, -8.009e-6
0.065, -7.991e-6
0.064, -7.952e-6
0.063, -7.934e-6
0.062, -7.906e-6
0.061, -7.879e-6
0.060, -7.858e-6
0.059, -7.830e-6
0.058, -7.803e-6
0.057, -7.778e-6
0.056, -7.757e-6
0.055, -7.735e-6
0.054, -7.710e-6
0.053, -7.685e-6
0.052, -7.665e-6
0.051, -7.643e-6
0.050, -7.619e-6
0.049, -7.596e-6
0.048, -7.574e-6
0.047, -7.550e-6
0.046, -7.528e-6
0.045, -7.505e-6
0.044, -7.484e-6
0.043, -7.464e-6
0.042, -7.440e-6
0.041, -7.419e-6
0.040, -7.402e-6
0.039, -7.372e-6
0.038, -7.358e-6
0.037, -7.336e-6
0.036, -7.317e-6
0.035, -7.298e-6
0.034, -7.276e-6
0.033, -7.261e-6
0.032, -7.239e-6
0.031, -7.217e-6
0.030, -7.202e-6
0.029, -7.177e-6
0.028, -7.167e-6
0.027, -7.148e-6
0.026, -7.129e-6
0.025, -7.109e-6
0.024, -7.085e-6
0.023, -7.070e-6
0.022, -7.049e-6
0.021, -7.029e-6
0.020, -7.016e-6
0.019, -6.997e-6
0.018, -6.980e-6
0.017, -6.960e-6
0.016, -6.941e-6
0.015, -6.928e-6
0.014, -6.906e-6
0.013, -6.885e-6
0.012, -6.871e-6
0.011, -6.856e-6
0.010, -6.839e-6
0.009, -6.823e-6
0.008, -6.806e-6
0.007, -6.788e-6
0.006, -6.777e-6
0.005, -6.761e-6
0.004, -6.742e-6
0.003, -6.727e-6
0.002, -6.708e-6
0.001, -6.697e-6
