May 7, 2026   16:41:24
Cyclic Voltammetry
File: mecn_co2_0.1mtbapf6_3mmfc_1mmfe-tpypy2me_1mphoh_-1.2_to_1v_100m
Data Source:  Experiment
Instrument Model:  CHI660D
Header: 
Note: 

Init E (V) = 0
High E (V) = 1
Low E (V) = -1.2
Final E (V) = 0
Init P/N = N
Scan Rate (V/s) = 0.1
Segment = 3
Sample Interval (V) = 0.001
Quiet Time (sec) = 2
Sensitivity (A/V) = 1e-4
Comp R (ohm) = 108.1

Results:

Channel 1:
Segment 1:

Segment 2:
Ep = -0.852V
ip = 1.358e-4A
Ah = 1.514e-4C

Ep = 0.498V
ip = 1.407e-4A
Ah = 8.719e-5C

Segment 3:
Ep = 0.439V
ip = -1.432e-4A
Ah = -9.087e-5C

Potential/V, Current/A

0.000, -3.351e-6
-0.001, -3.432e-6
-0.002, -3.459e-6
-0.003, -3.479e-6
-0.004, -3.495e-6
-0.005, -3.512e-6
-0.006, -3.521e-6
-0.007, -3.529e-6
-0.008, -3.537e-6
-0.009, -3.541e-6
-0.010, -3.556e-6
-0.011, -3.560e-6
-0.012, -3.566e-6
-0.013, -3.571e-6
-0.014, -3.576e-6
-0.015, -3.588e-6
-0.016, -3.595e-6
-0.017, -3.597e-6
-0.018, -3.603e-6
-0.019, -3.604e-6
-0.020, -3.616e-6
-0.021, -3.619e-6
-0.022, -3.620e-6
-0.023, -3.625e-6
-0.024, -3.630e-6
-0.025, -3.642e-6
-0.026, -3.640e-6
-0.027, -3.641e-6
-0.028, -3.647e-6
-0.029, -3.650e-6
-0.030, -3.655e-6
-0.031, -3.656e-6
-0.032, -3.661e-6
-0.033, -3.664e-6
-0.034, -3.666e-6
-0.035, -3.673e-6
-0.036, -3.680e-6
-0.037, -3.677e-6
-0.038, -3.674e-6
-0.039, -3.684e-6
-0.040, -3.691e-6
-0.041, -3.688e-6
-0.042, -3.694e-6
-0.043, -3.696e-6
-0.044, -3.704e-6
-0.045, -3.706e-6
-0.046, -3.708e-6
-0.047, -3.713e-6
-0.048, -3.717e-6
-0.049, -3.720e-6
-0.050, -3.724e-6
-0.051, -3.720e-6
-0.052, -3.731e-6
-0.053, -3.735e-6
-0.054, -3.731e-6
-0.055, -3.740e-6
-0.056, -3.740e-6
-0.057, -3.742e-6
-0.058, -3.745e-6
-0.059, -3.746e-6
-0.060, -3.750e-6
-0.061, -3.750e-6
-0.062, -3.755e-6
-0.063, -3.759e-6
-0.064, -3.756e-6
-0.065, -3.763e-6
-0.066, -3.766e-6
-0.067, -3.769e-6
-0.068, -3.773e-6
-0.069, -3.772e-6
-0.070, -3.774e-6
-0.071, -3.776e-6
-0.072, -3.785e-6
-0.073, -3.783e-6
-0.074, -3.783e-6
-0.075, -3.791e-6
-0.076, -3.798e-6
-0.077, -3.800e-6
-0.078, -3.795e-6
-0.079, -3.799e-6
-0.080, -3.807e-6
-0.081, -3.808e-6
-0.082, -3.812e-6
-0.083, -3.808e-6
-0.084, -3.817e-6
-0.085, -3.820e-6
-0.086, -3.820e-6
-0.087, -3.822e-6
-0.088, -3.825e-6
-0.089, -3.823e-6
-0.090, -3.832e-6
-0.091, -3.835e-6
-0.092, -3.837e-6
-0.093, -3.841e-6
-0.094, -3.846e-6
-0.095, -3.852e-6
-0.096, -3.850e-6
-0.097, -3.852e-6
-0.098, -3.855e-6
-0.099, -3.858e-6
-0.100, -3.867e-6
-0.101, -3.865e-6
-0.102, -3.872e-6
-0.103, -3.873e-6
-0.104, -3.876e-6
-0.105, -3.881e-6
-0.106, -3.880e-6
-0.107, -3.883e-6
-0.108, -3.886e-6
-0.109, -3.893e-6
-0.110, -3.892e-6
-0.111, -3.893e-6
-0.112, -3.898e-6
-0.113, -3.901e-6
-0.114, -3.902e-6
-0.115, -3.901e-6
-0.116, -3.907e-6
-0.117, -3.913e-6
-0.118, -3.912e-6
-0.119, -3.920e-6
-0.120, -3.923e-6
-0.121, -3.923e-6
-0.122, -3.927e-6
-0.123, -3.932e-6
-0.124, -3.935e-6
-0.125, -3.938e-6
-0.126, -3.937e-6
-0.127, -3.944e-6
-0.128, -3.956e-6
-0.129, -3.951e-6
-0.130, -3.955e-6
-0.131, -3.953e-6
-0.132, -3.964e-6
-0.133, -3.965e-6
-0.134, -3.965e-6
-0.135, -3.974e-6
-0.136, -3.975e-6
-0.137, -3.980e-6
-0.138, -3.981e-6
-0.139, -3.982e-6
-0.140, -3.986e-6
-0.141, -3.988e-6
-0.142, -3.992e-6
-0.143, -3.996e-6
-0.144, -4.000e-6
-0.145, -4.004e-6
-0.146, -4.006e-6
-0.147, -4.012e-6
-0.148, -4.014e-6
-0.149, -4.016e-6
-0.150, -4.019e-6
-0.151, -4.026e-6
-0.152, -4.029e-6
-0.153, -4.027e-6
-0.154, -4.030e-6
-0.155, -4.038e-6
-0.156, -4.039e-6
-0.157, -4.043e-6
-0.158, -4.041e-6
-0.159, -4.048e-6
-0.160, -4.055e-6
-0.161, -4.057e-6
-0.162, -4.057e-6
-0.163, -4.057e-6
-0.164, -4.064e-6
-0.165, -4.070e-6
-0.166, -4.063e-6
-0.167, -4.069e-6
-0.168, -4.077e-6
-0.169, -4.080e-6
-0.170, -4.086e-6
-0.171, -4.085e-6
-0.172, -4.090e-6
-0.173, -4.092e-6
-0.174, -4.094e-6
-0.175, -4.102e-6
-0.176, -4.099e-6
-0.177, -4.104e-6
-0.178, -4.109e-6
-0.179, -4.121e-6
-0.180, -4.124e-6
-0.181, -4.119e-6
-0.182, -4.124e-6
-0.183, -4.129e-6
-0.184, -4.132e-6
-0.185, -4.135e-6
-0.186, -4.138e-6
-0.187, -4.140e-6
-0.188, -4.149e-6
-0.189, -4.153e-6
-0.190, -4.157e-6
-0.191, -4.159e-6
-0.192, -4.159e-6
-0.193, -4.167e-6
-0.194, -4.173e-6
-0.195, -4.177e-6
-0.196, -4.181e-6
-0.197, -4.187e-6
-0.198, -4.187e-6
-0.199, -4.197e-6
-0.200, -4.202e-6
-0.201, -4.201e-6
-0.202, -4.211e-6
-0.203, -4.212e-6
-0.204, -4.207e-6
-0.205, -4.213e-6
-0.206, -4.219e-6
-0.207, -4.230e-6
-0.208, -4.235e-6
-0.209, -4.233e-6
-0.210, -4.243e-6
-0.211, -4.244e-6
-0.212, -4.251e-6
-0.213, -4.257e-6
-0.214, -4.255e-6
-0.215, -4.267e-6
-0.216, -4.267e-6
-0.217, -4.266e-6
-0.218, -4.276e-6
-0.219, -4.278e-6
-0.220, -4.287e-6
-0.221, -4.289e-6
-0.222, -4.295e-6
-0.223, -4.300e-6
-0.224, -4.307e-6
-0.225, -4.316e-6
-0.226, -4.315e-6
-0.227, -4.319e-6
-0.228, -4.327e-6
-0.229, -4.331e-6
-0.230, -4.345e-6
-0.231, -4.342e-6
-0.232, -4.348e-6
-0.233, -4.353e-6
-0.234, -4.356e-6
-0.235, -4.363e-6
-0.236, -4.370e-6
-0.237, -4.374e-6
-0.238, -4.374e-6
-0.239, -4.383e-6
-0.240, -4.392e-6
-0.241, -4.392e-6
-0.242, -4.401e-6
-0.243, -4.396e-6
-0.244, -4.408e-6
-0.245, -4.419e-6
-0.246, -4.414e-6
-0.247, -4.422e-6
-0.248, -4.432e-6
-0.249, -4.438e-6
-0.250, -4.444e-6
-0.251, -4.445e-6
-0.252, -4.455e-6
-0.253, -4.457e-6
-0.254, -4.463e-6
-0.255, -4.473e-6
-0.256, -4.471e-6
-0.257, -4.477e-6
-0.258, -4.480e-6
-0.259, -4.486e-6
-0.260, -4.498e-6
-0.261, -4.498e-6
-0.262, -4.501e-6
-0.263, -4.509e-6
-0.264, -4.516e-6
-0.265, -4.521e-6
-0.266, -4.521e-6
-0.267, -4.529e-6
-0.268, -4.531e-6
-0.269, -4.536e-6
-0.270, -4.543e-6
-0.271, -4.547e-6
-0.272, -4.553e-6
-0.273, -4.560e-6
-0.274, -4.568e-6
-0.275, -4.572e-6
-0.276, -4.575e-6
-0.277, -4.581e-6
-0.278, -4.584e-6
-0.279, -4.592e-6
-0.280, -4.596e-6
-0.281, -4.605e-6
-0.282, -4.608e-6
-0.283, -4.615e-6
-0.284, -4.616e-6
-0.285, -4.625e-6
-0.286, -4.625e-6
-0.287, -4.635e-6
-0.288, -4.637e-6
-0.289, -4.644e-6
-0.290, -4.648e-6
-0.291, -4.651e-6
-0.292, -4.661e-6
-0.293, -4.663e-6
-0.294, -4.662e-6
-0.295, -4.674e-6
-0.296, -4.680e-6
-0.297, -4.682e-6
-0.298, -4.684e-6
-0.299, -4.693e-6
-0.300, -4.701e-6
-0.301, -4.704e-6
-0.302, -4.707e-6
-0.303, -4.711e-6
-0.304, -4.720e-6
-0.305, -4.724e-6
-0.306, -4.725e-6
-0.307, -4.736e-6
-0.308, -4.735e-6
-0.309, -4.740e-6
-0.310, -4.743e-6
-0.311, -4.749e-6
-0.312, -4.751e-6
-0.313, -4.754e-6
-0.314, -4.760e-6
-0.315, -4.763e-6
-0.316, -4.769e-6
-0.317, -4.774e-6
-0.318, -4.778e-6
-0.319, -4.783e-6
-0.320, -4.784e-6
-0.321, -4.791e-6
-0.322, -4.790e-6
-0.323, -4.798e-6
-0.324, -4.808e-6
-0.325, -4.812e-6
-0.326, -4.814e-6
-0.327, -4.818e-6
-0.328, -4.822e-6
-0.329, -4.831e-6
-0.330, -4.836e-6
-0.331, -4.835e-6
-0.332, -4.848e-6
-0.333, -4.854e-6
-0.334, -4.855e-6
-0.335, -4.858e-6
-0.336, -4.858e-6
-0.337, -4.864e-6
-0.338, -4.870e-6
-0.339, -4.874e-6
-0.340, -4.880e-6
-0.341, -4.882e-6
-0.342, -4.887e-6
-0.343, -4.893e-6
-0.344, -4.899e-6
-0.345, -4.900e-6
-0.346, -4.904e-6
-0.347, -4.910e-6
-0.348, -4.918e-6
-0.349, -4.926e-6
-0.350, -4.928e-6
-0.351, -4.930e-6
-0.352, -4.939e-6
-0.353, -4.939e-6
-0.354, -4.951e-6
-0.355, -4.949e-6
-0.356, -4.956e-6
-0.357, -4.963e-6
-0.358, -4.963e-6
-0.359, -4.973e-6
-0.360, -4.979e-6
-0.361, -4.980e-6
-0.362, -4.989e-6
-0.363, -4.991e-6
-0.364, -4.998e-6
-0.365, -5.001e-6
-0.366, -5.004e-6
-0.367, -5.015e-6
-0.368, -5.018e-6
-0.369, -5.022e-6
-0.370, -5.029e-6
-0.371, -5.023e-6
-0.372, -5.038e-6
-0.373, -5.044e-6
-0.374, -5.046e-6
-0.375, -5.054e-6
-0.376, -5.058e-6
-0.377, -5.068e-6
-0.378, -5.067e-6
-0.379, -5.074e-6
-0.380, -5.085e-6
-0.381, -5.087e-6
-0.382, -5.094e-6
-0.383, -5.097e-6
-0.384, -5.117e-6
-0.385, -5.112e-6
-0.386, -5.114e-6
-0.387, -5.121e-6
-0.388, -5.126e-6
-0.389, -5.137e-6
-0.390, -5.138e-6
-0.391, -5.148e-6
-0.392, -5.154e-6
-0.393, -5.156e-6
-0.394, -5.171e-6
-0.395, -5.169e-6
-0.396, -5.175e-6
-0.397, -5.181e-6
-0.398, -5.186e-6
-0.399, -5.197e-6
-0.400, -5.202e-6
-0.401, -5.207e-6
-0.402, -5.213e-6
-0.403, -5.215e-6
-0.404, -5.227e-6
-0.405, -5.232e-6
-0.406, -5.235e-6
-0.407, -5.245e-6
-0.408, -5.252e-6
-0.409, -5.238e-6
-0.410, -5.256e-6
-0.411, -5.269e-6
-0.412, -5.278e-6
-0.413, -5.283e-6
-0.414, -5.292e-6
-0.415, -5.300e-6
-0.416, -5.300e-6
-0.417, -5.310e-6
-0.418, -5.315e-6
-0.419, -5.322e-6
-0.420, -5.331e-6
-0.421, -5.333e-6
-0.422, -5.336e-6
-0.423, -5.354e-6
-0.424, -5.362e-6
-0.425, -5.370e-6
-0.426, -5.379e-6
-0.427, -5.386e-6
-0.428, -5.397e-6
-0.429, -5.405e-6
-0.430, -5.416e-6
-0.431, -5.421e-6
-0.432, -5.433e-6
-0.433, -5.436e-6
-0.434, -5.442e-6
-0.435, -5.457e-6
-0.436, -5.459e-6
-0.437, -5.468e-6
-0.438, -5.474e-6
-0.439, -5.482e-6
-0.440, -5.493e-6
-0.441, -5.498e-6
-0.442, -5.508e-6
-0.443, -5.517e-6
-0.444, -5.532e-6
-0.445, -5.544e-6
-0.446, -5.551e-6
-0.447, -5.565e-6
-0.448, -5.567e-6
-0.449, -5.582e-6
-0.450, -5.589e-6
-0.451, -5.595e-6
-0.452, -5.611e-6
-0.453, -5.614e-6
-0.454, -5.616e-6
-0.455, -5.631e-6
-0.456, -5.640e-6
-0.457, -5.650e-6
-0.458, -5.659e-6
-0.459, -5.669e-6
-0.460, -5.684e-6
-0.461, -5.692e-6
-0.462, -5.705e-6
-0.463, -5.712e-6
-0.464, -5.730e-6
-0.465, -5.739e-6
-0.466, -5.750e-6
-0.467, -5.758e-6
-0.468, -5.770e-6
-0.469, -5.784e-6
-0.470, -5.791e-6
-0.471, -5.795e-6
-0.472, -5.809e-6
-0.473, -5.808e-6
-0.474, -5.823e-6
-0.475, -5.834e-6
-0.476, -5.845e-6
-0.477, -5.856e-6
-0.478, -5.863e-6
-0.479, -5.874e-6
-0.480, -5.887e-6
-0.481, -5.894e-6
-0.482, -5.909e-6
-0.483, -5.914e-6
-0.484, -5.930e-6
-0.485, -5.943e-6
-0.486, -5.949e-6
-0.487, -5.962e-6
-0.488, -5.967e-6
-0.489, -5.979e-6
-0.490, -5.986e-6
-0.491, -5.991e-6
-0.492, -6.006e-6
-0.493, -6.013e-6
-0.494, -6.021e-6
-0.495, -6.031e-6
-0.496, -6.036e-6
-0.497, -6.046e-6
-0.498, -6.054e-6
-0.499, -6.057e-6
-0.500, -6.075e-6
-0.501, -6.079e-6
-0.502, -6.090e-6
-0.503, -6.098e-6
-0.504, -6.108e-6
-0.505, -6.119e-6
-0.506, -6.120e-6
-0.507, -6.140e-6
-0.508, -6.148e-6
-0.509, -6.155e-6
-0.510, -6.159e-6
-0.511, -6.167e-6
-0.512, -6.181e-6
-0.513, -6.182e-6
-0.514, -6.189e-6
-0.515, -6.189e-6
-0.516, -6.195e-6
-0.517, -6.204e-6
-0.518, -6.207e-6
-0.519, -6.218e-6
-0.520, -6.224e-6
-0.521, -6.223e-6
-0.522, -6.239e-6
-0.523, -6.244e-6
-0.524, -6.251e-6
-0.525, -6.255e-6
-0.526, -6.260e-6
-0.527, -6.275e-6
-0.528, -6.273e-6
-0.529, -6.278e-6
-0.530, -6.282e-6
-0.531, -6.287e-6
-0.532, -6.298e-6
-0.533, -6.299e-6
-0.534, -6.300e-6
-0.535, -6.308e-6
-0.536, -6.313e-6
-0.537, -6.330e-6
-0.538, -6.324e-6
-0.539, -6.330e-6
-0.540, -6.335e-6
-0.541, -6.341e-6
-0.542, -6.346e-6
-0.543, -6.353e-6
-0.544, -6.358e-6
-0.545, -6.363e-6
-0.546, -6.360e-6
-0.547, -6.373e-6
-0.548, -6.373e-6
-0.549, -6.383e-6
-0.550, -6.375e-6
-0.551, -6.383e-6
-0.552, -6.387e-6
-0.553, -6.391e-6
-0.554, -6.396e-6
-0.555, -6.400e-6
-0.556, -6.408e-6
-0.557, -6.409e-6
-0.558, -6.413e-6
-0.559, -6.423e-6
-0.560, -6.426e-6
-0.561, -6.425e-6
-0.562, -6.431e-6
-0.563, -6.432e-6
-0.564, -6.443e-6
-0.565, -6.446e-6
-0.566, -6.443e-6
-0.567, -6.452e-6
-0.568, -6.454e-6
-0.569, -6.460e-6
-0.570, -6.463e-6
-0.571, -6.462e-6
-0.572, -6.476e-6
-0.573, -6.473e-6
-0.574, -6.479e-6
-0.575, -6.486e-6
-0.576, -6.478e-6
-0.577, -6.491e-6
-0.578, -6.499e-6
-0.579, -6.503e-6
-0.580, -6.506e-6
-0.581, -6.509e-6
-0.582, -6.512e-6
-0.583, -6.523e-6
-0.584, -6.527e-6
-0.585, -6.529e-6
-0.586, -6.529e-6
-0.587, -6.538e-6
-0.588, -6.552e-6
-0.589, -6.558e-6
-0.590, -6.551e-6
-0.591, -6.557e-6
-0.592, -6.564e-6
-0.593, -6.570e-6
-0.594, -6.573e-6
-0.595, -6.576e-6
-0.596, -6.580e-6
-0.597, -6.590e-6
-0.598, -6.596e-6
-0.599, -6.602e-6
-0.600, -6.603e-6
-0.601, -6.605e-6
-0.602, -6.619e-6
-0.603, -6.624e-6
-0.604, -6.634e-6
-0.605, -6.628e-6
-0.606, -6.639e-6
-0.607, -6.650e-6
-0.608, -6.657e-6
-0.609, -6.663e-6
-0.610, -6.661e-6
-0.611, -6.667e-6
-0.612, -6.683e-6
-0.613, -6.685e-6
-0.614, -6.666e-6
-0.615, -6.685e-6
-0.616, -6.696e-6
-0.617, -6.707e-6
-0.618, -6.713e-6
-0.619, -6.716e-6
-0.620, -6.725e-6
-0.621, -6.733e-6
-0.622, -6.744e-6
-0.623, -6.747e-6
-0.624, -6.760e-6
-0.625, -6.762e-6
-0.626, -6.771e-6
-0.627, -6.774e-6
-0.628, -6.786e-6
-0.629, -6.792e-6
-0.630, -6.796e-6
-0.631, -6.811e-6
-0.632, -6.824e-6
-0.633, -6.823e-6
-0.634, -6.832e-6
-0.635, -6.838e-6
-0.636, -6.855e-6
-0.637, -6.863e-6
-0.638, -6.867e-6
-0.639, -6.880e-6
-0.640, -6.900e-6
-0.641, -6.905e-6
-0.642, -6.914e-6
-0.643, -6.916e-6
-0.644, -6.931e-6
-0.645, -6.940e-6
-0.646, -6.944e-6
-0.647, -6.959e-6
-0.648, -6.966e-6
-0.649, -6.977e-6
-0.650, -6.984e-6
-0.651, -6.994e-6
-0.652, -7.005e-6
-0.653, -7.013e-6
-0.654, -7.026e-6
-0.655, -7.035e-6
-0.656, -7.051e-6
-0.657, -7.059e-6
-0.658, -7.068e-6
-0.659, -7.078e-6
-0.660, -7.094e-6
-0.661, -7.102e-6
-0.662, -7.113e-6
-0.663, -7.127e-6
-0.664, -7.139e-6
-0.665, -7.149e-6
-0.666, -7.158e-6
-0.667, -7.170e-6
-0.668, -7.181e-6
-0.669, -7.193e-6
-0.670, -7.200e-6
-0.671, -7.213e-6
-0.672, -7.227e-6
-0.673, -7.238e-6
-0.674, -7.252e-6
-0.675, -7.258e-6
-0.676, -7.271e-6
-0.677, -7.285e-6
-0.678, -7.285e-6
-0.679, -7.304e-6
-0.680, -7.312e-6
-0.681, -7.322e-6
-0.682, -7.338e-6
-0.683, -7.345e-6
-0.684, -7.362e-6
-0.685, -7.372e-6
-0.686, -7.374e-6
-0.687, -7.395e-6
-0.688, -7.403e-6
-0.689, -7.413e-6
-0.690, -7.419e-6
-0.691, -7.441e-6
-0.692, -7.452e-6
-0.693, -7.457e-6
-0.694, -7.462e-6
-0.695, -7.477e-6
-0.696, -7.483e-6
-0.697, -7.501e-6
-0.698, -7.503e-6
-0.699, -7.517e-6
-0.700, -7.524e-6
-0.701, -7.535e-6
-0.702, -7.548e-6
-0.703, -7.554e-6
-0.704, -7.552e-6
-0.705, -7.569e-6
-0.706, -7.575e-6
-0.707, -7.588e-6
-0.708, -7.602e-6
-0.709, -7.610e-6
-0.710, -7.611e-6
-0.711, -7.621e-6
-0.712, -7.640e-6
-0.713, -7.642e-6
-0.714, -7.650e-6
-0.715, -7.654e-6
-0.716, -7.673e-6
-0.717, -7.683e-6
-0.718, -7.685e-6
-0.719, -7.694e-6
-0.720, -7.698e-6
-0.721, -7.708e-6
-0.722, -7.719e-6
-0.723, -7.718e-6
-0.724, -7.737e-6
-0.725, -7.744e-6
-0.726, -7.749e-6
-0.727, -7.764e-6
-0.728, -7.768e-6
-0.729, -7.770e-6
-0.730, -7.780e-6
-0.731, -7.791e-6
-0.732, -7.807e-6
-0.733, -7.805e-6
-0.734, -7.816e-6
-0.735, -7.833e-6
-0.736, -7.839e-6
-0.737, -7.856e-6
-0.738, -7.865e-6
-0.739, -7.870e-6
-0.740, -7.887e-6
-0.741, -7.895e-6
-0.742, -7.917e-6
-0.743, -7.918e-6
-0.744, -7.934e-6
-0.745, -7.942e-6
-0.746, -7.952e-6
-0.747, -7.964e-6
-0.748, -7.974e-6
-0.749, -7.992e-6
-0.750, -8.004e-6
-0.751, -8.012e-6
-0.752, -8.030e-6
-0.753, -8.045e-6
-0.754, -8.060e-6
-0.755, -8.064e-6
-0.756, -8.090e-6
-0.757, -8.110e-6
-0.758, -8.115e-6
-0.759, -8.138e-6
-0.760, -8.155e-6
-0.761, -8.162e-6
-0.762, -8.187e-6
-0.763, -8.199e-6
-0.764, -8.224e-6
-0.765, -8.241e-6
-0.766, -8.260e-6
-0.767, -8.279e-6
-0.768, -8.293e-6
-0.769, -8.327e-6
-0.770, -8.346e-6
-0.771, -8.363e-6
-0.772, -8.386e-6
-0.773, -8.413e-6
-0.774, -8.434e-6
-0.775, -8.459e-6
-0.776, -8.485e-6
-0.777, -8.514e-6
-0.778, -8.539e-6
-0.779, -8.570e-6
-0.780, -8.599e-6
-0.781, -8.618e-6
-0.782, -8.657e-6
-0.783, -8.693e-6
-0.784, -8.718e-6
-0.785, -8.758e-6
-0.786, -8.789e-6
-0.787, -8.825e-6
-0.788, -8.866e-6
-0.789, -8.913e-6
-0.790, -8.937e-6
-0.791, -8.984e-6
-0.792, -9.033e-6
-0.793, -9.088e-6
-0.794, -9.131e-6
-0.795, -9.173e-6
-0.796, -9.226e-6
-0.797, -9.277e-6
-0.798, -9.324e-6
-0.799, -9.377e-6
-0.800, -9.437e-6
-0.801, -9.498e-6
-0.802, -9.560e-6
-0.803, -9.611e-6
-0.804, -9.688e-6
-0.805, -9.753e-6
-0.806, -9.800e-6
-0.807, -9.886e-6
-0.808, -9.948e-6
-0.809, -1.004e-5
-0.810, -1.012e-5
-0.811, -1.020e-5
-0.812, -1.030e-5
-0.813, -1.038e-5
-0.814, -1.046e-5
-0.815, -1.057e-5
-0.816, -1.068e-5
-0.817, -1.078e-5
-0.818, -1.088e-5
-0.819, -1.093e-5
-0.820, -1.109e-5
-0.821, -1.121e-5
-0.822, -1.134e-5
-0.823, -1.144e-5
-0.824, -1.159e-5
-0.825, -1.172e-5
-0.826, -1.186e-5
-0.827, -1.201e-5
-0.828, -1.216e-5
-0.829, -1.231e-5
-0.830, -1.248e-5
-0.831, -1.265e-5
-0.832, -1.278e-5
-0.833, -1.297e-5
-0.834, -1.318e-5
-0.835, -1.336e-5
-0.836, -1.356e-5
-0.837, -1.378e-5
-0.838, -1.395e-5
-0.839, -1.418e-5
-0.840, -1.442e-5
-0.841, -1.467e-5
-0.842, -1.490e-5
-0.843, -1.513e-5
-0.844, -1.542e-5
-0.845, -1.571e-5
-0.846, -1.597e-5
-0.847, -1.626e-5
-0.848, -1.654e-5
-0.849, -1.685e-5
-0.850, -1.717e-5
-0.851, -1.746e-5
-0.852, -1.779e-5
-0.853, -1.814e-5
-0.854, -1.849e-5
-0.855, -1.884e-5
-0.856, -1.922e-5
-0.857, -1.958e-5
-0.858, -1.994e-5
-0.859, -2.036e-5
-0.860, -2.078e-5
-0.861, -2.123e-5
-0.862, -2.167e-5
-0.863, -2.208e-5
-0.864, -2.257e-5
-0.865, -2.305e-5
-0.866, -2.355e-5
-0.867, -2.404e-5
-0.868, -2.454e-5
-0.869, -2.510e-5
-0.870, -2.557e-5
-0.871, -2.619e-5
-0.872, -2.676e-5
-0.873, -2.731e-5
-0.874, -2.791e-5
-0.875, -2.851e-5
-0.876, -2.916e-5
-0.877, -2.979e-5
-0.878, -3.043e-5
-0.879, -3.114e-5
-0.880, -3.180e-5
-0.881, -3.256e-5
-0.882, -3.324e-5
-0.883, -3.385e-5
-0.884, -3.472e-5
-0.885, -3.545e-5
-0.886, -3.623e-5
-0.887, -3.705e-5
-0.888, -3.782e-5
-0.889, -3.868e-5
-0.890, -3.953e-5
-0.891, -4.040e-5
-0.892, -4.130e-5
-0.893, -4.215e-5
-0.894, -4.309e-5
-0.895, -4.404e-5
-0.896, -4.509e-5
-0.897, -4.601e-5
-0.898, -4.697e-5
-0.899, -4.797e-5
-0.900, -4.898e-5
-0.901, -5.007e-5
-0.902, -5.109e-5
-0.903, -5.212e-5
-0.904, -5.316e-5
-0.905, -5.426e-5
-0.906, -5.538e-5
-0.907, -5.653e-5
-0.908, -5.760e-5
-0.909, -5.869e-5
-0.910, -5.986e-5
-0.911, -6.107e-5
-0.912, -6.220e-5
-0.913, -6.344e-5
-0.914, -6.463e-5
-0.915, -6.579e-5
-0.916, -6.703e-5
-0.917, -6.825e-5
-0.918, -6.942e-5
-0.919, -7.068e-5
-0.920, -7.192e-5
-0.921, -7.324e-5
-0.922, -7.448e-5
-0.923, -7.568e-5
-0.924, -7.697e-5
-0.925, -7.819e-5
-0.926, -7.945e-5
-0.927, -8.068e-5
-0.928, -8.195e-5
-0.929, -8.325e-5
-0.930, -8.446e-5
-0.931, -8.571e-5
-0.932, -8.703e-5
-0.933, -8.824e-5
-0.934, -8.945e-5
-0.935, -9.071e-5
-0.936, -9.197e-5
-0.937, -9.326e-5
-0.938, -9.450e-5
-0.939, -9.576e-5
-0.940, -9.702e-5
-0.941, -9.829e-5
-0.942, -9.953e-5
-0.943, -1.008e-4
-0.944, -1.020e-4
-0.945, -1.033e-4
-0.946, -1.046e-4
-0.947, -1.059e-4
-0.948, -1.071e-4
-0.949, -1.084e-4
-0.950, -1.096e-4
-0.951, -1.109e-4
-0.952, -1.121e-4
-0.953, -1.133e-4
-0.954, -1.146e-4
-0.955, -1.158e-4
-0.956, -1.171e-4
-0.957, -1.183e-4
-0.958, -1.195e-4
-0.959, -1.208e-4
-0.960, -1.219e-4
-0.961, -1.231e-4
-0.962, -1.243e-4
-0.963, -1.255e-4
-0.964, -1.267e-4
-0.965, -1.279e-4
-0.966, -1.291e-4
-0.967, -1.302e-4
-0.968, -1.314e-4
-0.969, -1.326e-4
-0.970, -1.337e-4
-0.971, -1.348e-4
-0.972, -1.360e-4
-0.973, -1.371e-4
-0.974, -1.382e-4
-0.975, -1.393e-4
-0.976, -1.404e-4
-0.977, -1.414e-4
-0.978, -1.425e-4
-0.979, -1.435e-4
-0.980, -1.445e-4
-0.981, -1.456e-4
-0.982, -1.466e-4
-0.983, -1.475e-4
-0.984, -1.485e-4
-0.985, -1.494e-4
-0.986, -1.503e-4
-0.987, -1.512e-4
-0.988, -1.521e-4
-0.989, -1.531e-4
-0.990, -1.539e-4
-0.991, -1.548e-4
-0.992, -1.556e-4
-0.993, -1.564e-4
-0.994, -1.572e-4
-0.995, -1.580e-4
-0.996, -1.588e-4
-0.997, -1.595e-4
-0.998, -1.602e-4
-0.999, -1.610e-4
-1.000, -1.616e-4
-1.001, -1.623e-4
-1.002, -1.630e-4
-1.003, -1.636e-4
-1.004, -1.642e-4
-1.005, -1.648e-4
-1.006, -1.654e-4
-1.007, -1.660e-4
-1.008, -1.665e-4
-1.009, -1.671e-4
-1.010, -1.676e-4
-1.011, -1.680e-4
-1.012, -1.686e-4
-1.013, -1.690e-4
-1.014, -1.695e-4
-1.015, -1.699e-4
-1.016, -1.704e-4
-1.017, -1.708e-4
-1.018, -1.712e-4
-1.019, -1.716e-4
-1.020, -1.719e-4
-1.021, -1.723e-4
-1.022, -1.727e-4
-1.023, -1.730e-4
-1.024, -1.732e-4
-1.025, -1.736e-4
-1.026, -1.739e-4
-1.027, -1.742e-4
-1.028, -1.745e-4
-1.029, -1.747e-4
-1.030, -1.750e-4
-1.031, -1.752e-4
-1.032, -1.755e-4
-1.033, -1.757e-4
-1.034, -1.759e-4
-1.035, -1.761e-4
-1.036, -1.763e-4
-1.037, -1.765e-4
-1.038, -1.767e-4
-1.039, -1.769e-4
-1.040, -1.770e-4
-1.041, -1.772e-4
-1.042, -1.773e-4
-1.043, -1.775e-4
-1.044, -1.776e-4
-1.045, -1.777e-4
-1.046, -1.779e-4
-1.047, -1.780e-4
-1.048, -1.781e-4
-1.049, -1.782e-4
-1.050, -1.783e-4
-1.051, -1.784e-4
-1.052, -1.785e-4
-1.053, -1.786e-4
-1.054, -1.787e-4
-1.055, -1.787e-4
-1.056, -1.788e-4
-1.057, -1.789e-4
-1.058, -1.789e-4
-1.059, -1.790e-4
-1.060, -1.791e-4
-1.061, -1.791e-4
-1.062, -1.791e-4
-1.063, -1.792e-4
-1.064, -1.792e-4
-1.065, -1.793e-4
-1.066, -1.793e-4
-1.067, -1.793e-4
-1.068, -1.793e-4
-1.069, -1.794e-4
-1.070, -1.794e-4
-1.071, -1.794e-4
-1.072, -1.794e-4
-1.073, -1.794e-4
-1.074, -1.795e-4
-1.075, -1.795e-4
-1.076, -1.795e-4
-1.077, -1.795e-4
-1.078, -1.795e-4
-1.079, -1.795e-4
-1.080, -1.795e-4
-1.081, -1.795e-4
-1.082, -1.795e-4
-1.083, -1.795e-4
-1.084, -1.795e-4
-1.085, -1.795e-4
-1.086, -1.794e-4
-1.087, -1.794e-4
-1.088, -1.794e-4
-1.089, -1.794e-4
-1.090, -1.794e-4
-1.091, -1.794e-4
-1.092, -1.794e-4
-1.093, -1.794e-4
-1.094, -1.793e-4
-1.095, -1.793e-4
-1.096, -1.793e-4
-1.097, -1.793e-4
-1.098, -1.793e-4
-1.099, -1.792e-4
-1.100, -1.792e-4
-1.101, -1.792e-4
-1.102, -1.792e-4
-1.103, -1.792e-4
-1.104, -1.791e-4
-1.105, -1.791e-4
-1.106, -1.791e-4
-1.107, -1.791e-4
-1.108, -1.790e-4
-1.109, -1.790e-4
-1.110, -1.790e-4
-1.111, -1.790e-4
-1.112, -1.789e-4
-1.113, -1.789e-4
-1.114, -1.789e-4
-1.115, -1.789e-4
-1.116, -1.788e-4
-1.117, -1.788e-4
-1.118, -1.788e-4
-1.119, -1.788e-4
-1.120, -1.787e-4
-1.121, -1.787e-4
-1.122, -1.787e-4
-1.123, -1.787e-4
-1.124, -1.786e-4
-1.125, -1.786e-4
-1.126, -1.786e-4
-1.127, -1.786e-4
-1.128, -1.785e-4
-1.129, -1.785e-4
-1.130, -1.785e-4
-1.131, -1.784e-4
-1.132, -1.784e-4
-1.133, -1.784e-4
-1.134, -1.784e-4
-1.135, -1.783e-4
-1.136, -1.783e-4
-1.137, -1.783e-4
-1.138, -1.783e-4
-1.139, -1.782e-4
-1.140, -1.782e-4
-1.141, -1.782e-4
-1.142, -1.782e-4
-1.143, -1.782e-4
-1.144, -1.781e-4
-1.145, -1.781e-4
-1.146, -1.781e-4
-1.147, -1.781e-4
-1.148, -1.780e-4
-1.149, -1.780e-4
-1.150, -1.780e-4
-1.151, -1.780e-4
-1.152, -1.780e-4
-1.153, -1.779e-4
-1.154, -1.779e-4
-1.155, -1.779e-4
-1.156, -1.779e-4
-1.157, -1.779e-4
-1.158, -1.779e-4
-1.159, -1.779e-4
-1.160, -1.778e-4
-1.161, -1.778e-4
-1.162, -1.778e-4
-1.163, -1.778e-4
-1.164, -1.778e-4
-1.165, -1.778e-4
-1.166, -1.778e-4
-1.167, -1.778e-4
-1.168, -1.777e-4
-1.169, -1.777e-4
-1.170, -1.777e-4
-1.171, -1.777e-4
-1.172, -1.777e-4
-1.173, -1.777e-4
-1.174, -1.777e-4
-1.175, -1.777e-4
-1.176, -1.777e-4
-1.177, -1.777e-4
-1.178, -1.777e-4
-1.179, -1.777e-4
-1.180, -1.777e-4
-1.181, -1.777e-4
-1.182, -1.777e-4
-1.183, -1.777e-4
-1.184, -1.778e-4
-1.185, -1.778e-4
-1.186, -1.778e-4
-1.187, -1.778e-4
-1.188, -1.778e-4
-1.189, -1.778e-4
-1.190, -1.778e-4
-1.191, -1.778e-4
-1.192, -1.779e-4
-1.193, -1.779e-4
-1.194, -1.779e-4
-1.195, -1.779e-4
-1.196, -1.780e-4
-1.197, -1.780e-4
-1.198, -1.780e-4
-1.199, -1.781e-4
-1.200, -1.776e-4
-1.199, -1.771e-4
-1.198, -1.768e-4
-1.197, -1.766e-4
-1.196, -1.763e-4
-1.195, -1.761e-4
-1.194, -1.759e-4
-1.193, -1.756e-4
-1.192, -1.754e-4
-1.191, -1.752e-4
-1.190, -1.750e-4
-1.189, -1.748e-4
-1.188, -1.746e-4
-1.187, -1.744e-4
-1.186, -1.743e-4
-1.185, -1.741e-4
-1.184, -1.739e-4
-1.183, -1.737e-4
-1.182, -1.736e-4
-1.181, -1.734e-4
-1.180, -1.732e-4
-1.179, -1.731e-4
-1.178, -1.729e-4
-1.177, -1.728e-4
-1.176, -1.726e-4
-1.175, -1.724e-4
-1.174, -1.723e-4
-1.173, -1.721e-4
-1.172, -1.720e-4
-1.171, -1.719e-4
-1.170, -1.717e-4
-1.169, -1.716e-4
-1.168, -1.714e-4
-1.167, -1.713e-4
-1.166, -1.712e-4
-1.165, -1.710e-4
-1.164, -1.709e-4
-1.163, -1.707e-4
-1.162, -1.706e-4
-1.161, -1.705e-4
-1.160, -1.704e-4
-1.159, -1.702e-4
-1.158, -1.701e-4
-1.157, -1.700e-4
-1.156, -1.699e-4
-1.155, -1.697e-4
-1.154, -1.696e-4
-1.153, -1.695e-4
-1.152, -1.694e-4
-1.151, -1.692e-4
-1.150, -1.691e-4
-1.149, -1.690e-4
-1.148, -1.689e-4
-1.147, -1.688e-4
-1.146, -1.686e-4
-1.145, -1.685e-4
-1.144, -1.684e-4
-1.143, -1.683e-4
-1.142, -1.682e-4
-1.141, -1.681e-4
-1.140, -1.680e-4
-1.139, -1.678e-4
-1.138, -1.677e-4
-1.137, -1.676e-4
-1.136, -1.675e-4
-1.135, -1.674e-4
-1.134, -1.673e-4
-1.133, -1.672e-4
-1.132, -1.670e-4
-1.131, -1.669e-4
-1.130, -1.668e-4
-1.129, -1.667e-4
-1.128, -1.666e-4
-1.127, -1.665e-4
-1.126, -1.664e-4
-1.125, -1.663e-4
-1.124, -1.661e-4
-1.123, -1.660e-4
-1.122, -1.659e-4
-1.121, -1.658e-4
-1.120, -1.657e-4
-1.119, -1.656e-4
-1.118, -1.655e-4
-1.117, -1.654e-4
-1.116, -1.652e-4
-1.115, -1.651e-4
-1.114, -1.650e-4
-1.113, -1.649e-4
-1.112, -1.648e-4
-1.111, -1.647e-4
-1.110, -1.646e-4
-1.109, -1.644e-4
-1.108, -1.643e-4
-1.107, -1.642e-4
-1.106, -1.641e-4
-1.105, -1.640e-4
-1.104, -1.638e-4
-1.103, -1.637e-4
-1.102, -1.636e-4
-1.101, -1.634e-4
-1.100, -1.633e-4
-1.099, -1.632e-4
-1.098, -1.631e-4
-1.097, -1.629e-4
-1.096, -1.628e-4
-1.095, -1.627e-4
-1.094, -1.625e-4
-1.093, -1.624e-4
-1.092, -1.623e-4
-1.091, -1.621e-4
-1.090, -1.620e-4
-1.089, -1.618e-4
-1.088, -1.617e-4
-1.087, -1.616e-4
-1.086, -1.614e-4
-1.085, -1.613e-4
-1.084, -1.611e-4
-1.083, -1.609e-4
-1.082, -1.608e-4
-1.081, -1.606e-4
-1.080, -1.605e-4
-1.079, -1.603e-4
-1.078, -1.601e-4
-1.077, -1.600e-4
-1.076, -1.598e-4
-1.075, -1.596e-4
-1.074, -1.594e-4
-1.073, -1.593e-4
-1.072, -1.591e-4
-1.071, -1.589e-4
-1.070, -1.587e-4
-1.069, -1.585e-4
-1.068, -1.583e-4
-1.067, -1.581e-4
-1.066, -1.579e-4
-1.065, -1.576e-4
-1.064, -1.574e-4
-1.063, -1.572e-4
-1.062, -1.570e-4
-1.061, -1.567e-4
-1.060, -1.565e-4
-1.059, -1.562e-4
-1.058, -1.560e-4
-1.057, -1.557e-4
-1.056, -1.554e-4
-1.055, -1.551e-4
-1.054, -1.549e-4
-1.053, -1.546e-4
-1.052, -1.543e-4
-1.051, -1.540e-4
-1.050, -1.537e-4
-1.049, -1.534e-4
-1.048, -1.530e-4
-1.047, -1.527e-4
-1.046, -1.523e-4
-1.045, -1.520e-4
-1.044, -1.516e-4
-1.043, -1.513e-4
-1.042, -1.509e-4
-1.041, -1.505e-4
-1.040, -1.501e-4
-1.039, -1.497e-4
-1.038, -1.493e-4
-1.037, -1.489e-4
-1.036, -1.484e-4
-1.035, -1.479e-4
-1.034, -1.475e-4
-1.033, -1.470e-4
-1.032, -1.465e-4
-1.031, -1.460e-4
-1.030, -1.455e-4
-1.029, -1.450e-4
-1.028, -1.444e-4
-1.027, -1.439e-4
-1.026, -1.433e-4
-1.025, -1.427e-4
-1.024, -1.423e-4
-1.023, -1.416e-4
-1.022, -1.410e-4
-1.021, -1.403e-4
-1.020, -1.397e-4
-1.019, -1.390e-4
-1.018, -1.383e-4
-1.017, -1.376e-4
-1.016, -1.369e-4
-1.015, -1.362e-4
-1.014, -1.355e-4
-1.013, -1.347e-4
-1.012, -1.339e-4
-1.011, -1.332e-4
-1.010, -1.323e-4
-1.009, -1.315e-4
-1.008, -1.307e-4
-1.007, -1.298e-4
-1.006, -1.289e-4
-1.005, -1.280e-4
-1.004, -1.271e-4
-1.003, -1.262e-4
-1.002, -1.253e-4
-1.001, -1.243e-4
-1.000, -1.233e-4
-0.999, -1.223e-4
-0.998, -1.213e-4
-0.997, -1.203e-4
-0.996, -1.192e-4
-0.995, -1.182e-4
-0.994, -1.171e-4
-0.993, -1.160e-4
-0.992, -1.150e-4
-0.991, -1.139e-4
-0.990, -1.127e-4
-0.989, -1.116e-4
-0.988, -1.104e-4
-0.987, -1.093e-4
-0.986, -1.082e-4
-0.985, -1.070e-4
-0.984, -1.058e-4
-0.983, -1.046e-4
-0.982, -1.034e-4
-0.981, -1.022e-4
-0.980, -1.009e-4
-0.979, -9.975e-5
-0.978, -9.850e-5
-0.977, -9.729e-5
-0.976, -9.601e-5
-0.975, -9.472e-5
-0.974, -9.354e-5
-0.973, -9.229e-5
-0.972, -9.104e-5
-0.971, -8.974e-5
-0.970, -8.842e-5
-0.969, -8.715e-5
-0.968, -8.589e-5
-0.967, -8.460e-5
-0.966, -8.333e-5
-0.965, -8.206e-5
-0.964, -8.076e-5
-0.963, -7.948e-5
-0.962, -7.820e-5
-0.961, -7.696e-5
-0.960, -7.577e-5
-0.959, -7.445e-5
-0.958, -7.315e-5
-0.957, -7.189e-5
-0.956, -7.060e-5
-0.955, -6.932e-5
-0.954, -6.807e-5
-0.953, -6.679e-5
-0.952, -6.557e-5
-0.951, -6.428e-5
-0.950, -6.304e-5
-0.949, -6.187e-5
-0.948, -6.059e-5
-0.947, -5.923e-5
-0.946, -5.805e-5
-0.945, -5.685e-5
-0.944, -5.567e-5
-0.943, -5.443e-5
-0.942, -5.327e-5
-0.941, -5.210e-5
-0.940, -5.084e-5
-0.939, -4.969e-5
-0.938, -4.847e-5
-0.937, -4.729e-5
-0.936, -4.607e-5
-0.935, -4.489e-5
-0.934, -4.379e-5
-0.933, -4.261e-5
-0.932, -4.137e-5
-0.931, -4.025e-5
-0.930, -3.907e-5
-0.929, -3.788e-5
-0.928, -3.678e-5
-0.927, -3.560e-5
-0.926, -3.447e-5
-0.925, -3.338e-5
-0.924, -3.223e-5
-0.923, -3.113e-5
-0.922, -2.990e-5
-0.921, -2.887e-5
-0.920, -2.779e-5
-0.919, -2.675e-5
-0.918, -2.571e-5
-0.917, -2.469e-5
-0.916, -2.366e-5
-0.915, -2.265e-5
-0.914, -2.164e-5
-0.913, -2.065e-5
-0.912, -1.974e-5
-0.911, -1.875e-5
-0.910, -1.779e-5
-0.909, -1.704e-5
-0.908, -1.604e-5
-0.907, -1.516e-5
-0.906, -1.430e-5
-0.905, -1.342e-5
-0.904, -1.267e-5
-0.903, -1.182e-5
-0.902, -1.100e-5
-0.901, -1.023e-5
-0.900, -9.492e-6
-0.899, -8.790e-6
-0.898, -8.033e-6
-0.897, -7.378e-6
-0.896, -6.614e-6
-0.895, -5.950e-6
-0.894, -5.388e-6
-0.893, -4.811e-6
-0.892, -4.233e-6
-0.891, -3.692e-6
-0.890, -3.120e-6
-0.889, -2.672e-6
-0.888, -2.192e-6
-0.887, -1.702e-6
-0.886, -1.187e-6
-0.885, -7.634e-7
-0.884, -3.879e-7
-0.883, -6.362e-8
-0.882, 3.297e-7
-0.881, 6.805e-7
-0.880, 1.047e-6
-0.879, 1.368e-6
-0.878, 1.667e-6
-0.877, 1.920e-6
-0.876, 2.169e-6
-0.875, 2.461e-6
-0.874, 2.684e-6
-0.873, 2.896e-6
-0.872, 3.089e-6
-0.871, 3.284e-6
-0.870, 3.480e-6
-0.869, 3.588e-6
-0.868, 3.772e-6
-0.867, 3.884e-6
-0.866, 4.022e-6
-0.865, 4.172e-6
-0.864, 4.230e-6
-0.863, 4.356e-6
-0.862, 4.434e-6
-0.861, 4.473e-6
-0.860, 4.585e-6
-0.859, 4.611e-6
-0.858, 4.618e-6
-0.857, 4.661e-6
-0.856, 4.695e-6
-0.855, 4.752e-6
-0.854, 4.764e-6
-0.853, 4.776e-6
-0.852, 4.790e-6
-0.851, 4.774e-6
-0.850, 4.789e-6
-0.849, 4.761e-6
-0.848, 4.757e-6
-0.847, 4.754e-6
-0.846, 4.720e-6
-0.845, 4.734e-6
-0.844, 4.675e-6
-0.843, 4.630e-6
-0.842, 4.591e-6
-0.841, 4.557e-6
-0.840, 4.509e-6
-0.839, 4.462e-6
-0.838, 4.424e-6
-0.837, 4.358e-6
-0.836, 4.313e-6
-0.835, 4.285e-6
-0.834, 4.208e-6
-0.833, 4.165e-6
-0.832, 4.080e-6
-0.831, 4.048e-6
-0.830, 3.997e-6
-0.829, 3.921e-6
-0.828, 3.874e-6
-0.827, 3.807e-6
-0.826, 3.736e-6
-0.825, 3.682e-6
-0.824, 3.615e-6
-0.823, 3.558e-6
-0.822, 3.489e-6
-0.821, 3.423e-6
-0.820, 3.375e-6
-0.819, 3.276e-6
-0.818, 3.249e-6
-0.817, 3.178e-6
-0.816, 3.122e-6
-0.815, 3.067e-6
-0.814, 3.013e-6
-0.813, 2.944e-6
-0.812, 2.875e-6
-0.811, 2.815e-6
-0.810, 2.767e-6
-0.809, 2.703e-6
-0.808, 2.640e-6
-0.807, 2.581e-6
-0.806, 2.518e-6
-0.805, 2.471e-6
-0.804, 2.414e-6
-0.803, 2.364e-6
-0.802, 2.306e-6
-0.801, 2.249e-6
-0.800, 2.198e-6
-0.799, 2.148e-6
-0.798, 2.091e-6
-0.797, 2.032e-6
-0.796, 1.985e-6
-0.795, 1.938e-6
-0.794, 1.904e-6
-0.793, 1.845e-6
-0.792, 1.792e-6
-0.791, 1.741e-6
-0.790, 1.703e-6
-0.789, 1.646e-6
-0.788, 1.614e-6
-0.787, 1.564e-6
-0.786, 1.516e-6
-0.785, 1.478e-6
-0.784, 1.426e-6
-0.783, 1.387e-6
-0.782, 1.343e-6
-0.781, 1.281e-6
-0.780, 1.257e-6
-0.779, 1.220e-6
-0.778, 1.169e-6
-0.777, 1.136e-6
-0.776, 1.093e-6
-0.775, 1.068e-6
-0.774, 1.029e-6
-0.773, 9.863e-7
-0.772, 9.524e-7
-0.771, 9.233e-7
-0.770, 8.823e-7
-0.769, 8.507e-7
-0.768, 8.102e-7
-0.767, 7.827e-7
-0.766, 7.459e-7
-0.765, 7.101e-7
-0.764, 6.789e-7
-0.763, 6.453e-7
-0.762, 6.154e-7
-0.761, 5.842e-7
-0.760, 5.613e-7
-0.759, 5.282e-7
-0.758, 4.991e-7
-0.757, 4.759e-7
-0.756, 4.485e-7
-0.755, 4.193e-7
-0.754, 3.875e-7
-0.753, 3.708e-7
-0.752, 3.437e-7
-0.751, 3.145e-7
-0.750, 2.933e-7
-0.749, 2.614e-7
-0.748, 2.395e-7
-0.747, 2.168e-7
-0.746, 1.862e-7
-0.745, 1.667e-7
-0.744, 1.392e-7
-0.743, 1.347e-7
-0.742, 1.081e-7
-0.741, 8.110e-8
-0.740, 6.473e-8
-0.739, 3.822e-8
-0.738, 1.893e-8
-0.737, 1.871e-9
-0.736, -2.210e-8
-0.735, -4.013e-8
-0.734, -6.030e-8
-0.733, -8.749e-8
-0.732, -1.019e-7
-0.731, -1.273e-7
-0.730, -1.575e-7
-0.729, -1.710e-7
-0.728, -1.895e-7
-0.727, -2.018e-7
-0.726, -2.244e-7
-0.725, -2.433e-7
-0.724, -2.629e-7
-0.723, -2.786e-7
-0.722, -2.962e-7
-0.721, -3.195e-7
-0.720, -3.326e-7
-0.719, -3.519e-7
-0.718, -3.667e-7
-0.717, -3.813e-7
-0.716, -4.074e-7
-0.715, -4.219e-7
-0.714, -4.470e-7
-0.713, -4.666e-7
-0.712, -4.842e-7
-0.711, -5.057e-7
-0.710, -5.237e-7
-0.709, -5.490e-7
-0.708, -5.600e-7
-0.707, -5.825e-7
-0.706, -6.028e-7
-0.705, -6.197e-7
-0.704, -6.491e-7
-0.703, -6.626e-7
-0.702, -6.842e-7
-0.701, -7.115e-7
-0.700, -7.243e-7
-0.699, -7.428e-7
-0.698, -7.671e-7
-0.697, -7.891e-7
-0.696, -8.124e-7
-0.695, -8.232e-7
-0.694, -8.476e-7
-0.693, -8.607e-7
-0.692, -8.784e-7
-0.691, -8.826e-7
-0.690, -9.059e-7
-0.689, -9.178e-7
-0.688, -9.350e-7
-0.687, -9.455e-7
-0.686, -9.600e-7
-0.685, -9.696e-7
-0.684, -9.784e-7
-0.683, -9.851e-7
-0.682, -1.001e-6
-0.681, -1.007e-6
-0.680, -1.013e-6
-0.679, -1.029e-6
-0.678, -1.031e-6
-0.677, -1.039e-6
-0.676, -1.042e-6
-0.675, -1.041e-6
-0.674, -1.051e-6
-0.673, -1.055e-6
-0.672, -1.064e-6
-0.671, -1.068e-6
-0.670, -1.060e-6
-0.669, -1.072e-6
-0.668, -1.074e-6
-0.667, -1.080e-6
-0.666, -1.082e-6
-0.665, -1.081e-6
-0.664, -1.086e-6
-0.663, -1.085e-6
-0.662, -1.093e-6
-0.661, -1.091e-6
-0.660, -1.087e-6
-0.659, -1.088e-6
-0.658, -1.097e-6
-0.657, -1.096e-6
-0.656, -1.094e-6
-0.655, -1.089e-6
-0.654, -1.095e-6
-0.653, -1.105e-6
-0.652, -1.102e-6
-0.651, -1.097e-6
-0.650, -1.099e-6
-0.649, -1.099e-6
-0.648, -1.097e-6
-0.647, -1.101e-6
-0.646, -1.097e-6
-0.645, -1.098e-6
-0.644, -1.097e-6
-0.643, -1.097e-6
-0.642, -1.100e-6
-0.641, -1.093e-6
-0.640, -1.083e-6
-0.639, -1.089e-6
-0.638, -1.092e-6
-0.637, -1.097e-6
-0.636, -1.086e-6
-0.635, -1.091e-6
-0.634, -1.092e-6
-0.633, -1.090e-6
-0.632, -1.090e-6
-0.631, -1.089e-6
-0.630, -1.087e-6
-0.629, -1.095e-6
-0.628, -1.085e-6
-0.627, -1.094e-6
-0.626, -1.088e-6
-0.625, -1.081e-6
-0.624, -1.086e-6
-0.623, -1.081e-6
-0.622, -1.080e-6
-0.621, -1.082e-6
-0.620, -1.075e-6
-0.619, -1.078e-6
-0.618, -1.078e-6
-0.617, -1.077e-6
-0.616, -1.078e-6
-0.615, -1.088e-6
-0.614, -1.082e-6
-0.613, -1.076e-6
-0.612, -1.073e-6
-0.611, -1.067e-6
-0.610, -1.072e-6
-0.609, -1.070e-6
-0.608, -1.068e-6
-0.607, -1.067e-6
-0.606, -1.064e-6
-0.605, -1.064e-6
-0.604, -1.065e-6
-0.603, -1.061e-6
-0.602, -1.071e-6
-0.601, -1.063e-6
-0.600, -1.061e-6
-0.599, -1.060e-6
-0.598, -1.058e-6
-0.597, -1.060e-6
-0.596, -1.055e-6
-0.595, -1.051e-6
-0.594, -1.050e-6
-0.593, -1.049e-6
-0.592, -1.052e-6
-0.591, -1.050e-6
-0.590, -1.044e-6
-0.589, -1.042e-6
-0.588, -1.038e-6
-0.587, -1.039e-6
-0.586, -1.045e-6
-0.585, -1.035e-6
-0.584, -1.037e-6
-0.583, -1.033e-6
-0.582, -1.036e-6
-0.581, -1.039e-6
-0.580, -1.029e-6
-0.579, -1.033e-6
-0.578, -1.030e-6
-0.577, -1.033e-6
-0.576, -1.040e-6
-0.575, -1.025e-6
-0.574, -1.024e-6
-0.573, -1.025e-6
-0.572, -1.023e-6
-0.571, -1.019e-6
-0.570, -1.019e-6
-0.569, -1.015e-6
-0.568, -1.019e-6
-0.567, -1.013e-6
-0.566, -1.015e-6
-0.565, -1.012e-6
-0.564, -1.007e-6
-0.563, -1.004e-6
-0.562, -1.010e-6
-0.561, -1.009e-6
-0.560, -1.001e-6
-0.559, -9.966e-7
-0.558, -1.001e-6
-0.557, -9.999e-7
-0.556, -9.962e-7
-0.555, -9.890e-7
-0.554, -9.949e-7
-0.553, -9.901e-7
-0.552, -9.882e-7
-0.551, -9.915e-7
-0.550, -9.806e-7
-0.549, -9.827e-7
-0.548, -9.791e-7
-0.547, -9.778e-7
-0.546, -9.802e-7
-0.545, -9.686e-7
-0.544, -9.747e-7
-0.543, -9.683e-7
-0.542, -9.665e-7
-0.541, -9.679e-7
-0.540, -9.599e-7
-0.539, -9.547e-7
-0.538, -9.505e-7
-0.537, -9.515e-7
-0.536, -9.512e-7
-0.535, -9.426e-7
-0.534, -9.455e-7
-0.533, -9.469e-7
-0.532, -9.414e-7
-0.531, -9.361e-7
-0.530, -9.345e-7
-0.529, -9.310e-7
-0.528, -9.304e-7
-0.527, -9.182e-7
-0.526, -9.209e-7
-0.525, -9.287e-7
-0.524, -9.173e-7
-0.523, -9.123e-7
-0.522, -9.098e-7
-0.521, -9.037e-7
-0.520, -9.007e-7
-0.519, -8.982e-7
-0.518, -8.928e-7
-0.517, -8.944e-7
-0.516, -8.843e-7
-0.515, -8.817e-7
-0.514, -8.848e-7
-0.513, -8.744e-7
-0.512, -8.646e-7
-0.511, -8.661e-7
-0.510, -8.595e-7
-0.509, -8.639e-7
-0.508, -8.518e-7
-0.507, -8.470e-7
-0.506, -8.480e-7
-0.505, -8.399e-7
-0.504, -8.432e-7
-0.503, -8.329e-7
-0.502, -8.274e-7
-0.501, -8.283e-7
-0.500, -8.233e-7
-0.499, -8.219e-7
-0.498, -8.133e-7
-0.497, -8.079e-7
-0.496, -8.054e-7
-0.495, -7.983e-7
-0.494, -7.962e-7
-0.493, -7.892e-7
-0.492, -7.804e-7
-0.491, -7.808e-7
-0.490, -7.779e-7
-0.489, -7.683e-7
-0.488, -7.637e-7
-0.487, -7.469e-7
-0.486, -7.528e-7
-0.485, -7.471e-7
-0.484, -7.436e-7
-0.483, -7.362e-7
-0.482, -7.316e-7
-0.481, -7.297e-7
-0.480, -7.222e-7
-0.479, -7.183e-7
-0.478, -7.118e-7
-0.477, -7.123e-7
-0.476, -7.034e-7
-0.475, -6.953e-7
-0.474, -7.056e-7
-0.473, -6.906e-7
-0.472, -6.893e-7
-0.471, -6.812e-7
-0.470, -6.741e-7
-0.469, -6.743e-7
-0.468, -6.643e-7
-0.467, -6.606e-7
-0.466, -6.585e-7
-0.465, -6.547e-7
-0.464, -6.517e-7
-0.463, -6.383e-7
-0.462, -6.379e-7
-0.461, -6.378e-7
-0.460, -6.282e-7
-0.459, -6.303e-7
-0.458, -6.206e-7
-0.457, -6.199e-7
-0.456, -6.168e-7
-0.455, -6.053e-7
-0.454, -6.091e-7
-0.453, -6.007e-7
-0.452, -5.966e-7
-0.451, -5.912e-7
-0.450, -5.869e-7
-0.449, -5.862e-7
-0.448, -5.884e-7
-0.447, -5.802e-7
-0.446, -5.726e-7
-0.445, -5.704e-7
-0.444, -5.683e-7
-0.443, -5.622e-7
-0.442, -5.669e-7
-0.441, -5.597e-7
-0.440, -5.505e-7
-0.439, -5.500e-7
-0.438, -5.461e-7
-0.437, -5.483e-7
-0.436, -5.370e-7
-0.435, -5.200e-7
-0.434, -5.308e-7
-0.433, -5.319e-7
-0.432, -5.266e-7
-0.431, -5.185e-7
-0.430, -5.122e-7
-0.429, -5.219e-7
-0.428, -5.108e-7
-0.427, -5.123e-7
-0.426, -5.071e-7
-0.425, -5.004e-7
-0.424, -5.016e-7
-0.423, -5.055e-7
-0.422, -4.998e-7
-0.421, -4.943e-7
-0.420, -4.893e-7
-0.419, -4.868e-7
-0.418, -4.860e-7
-0.417, -4.809e-7
-0.416, -4.818e-7
-0.415, -4.719e-7
-0.414, -4.753e-7
-0.413, -4.747e-7
-0.412, -4.702e-7
-0.411, -4.684e-7
-0.410, -4.877e-7
-0.409, -4.696e-7
-0.408, -4.679e-7
-0.407, -4.601e-7
-0.406, -4.576e-7
-0.405, -4.536e-7
-0.404, -4.547e-7
-0.403, -4.538e-7
-0.402, -4.471e-7
-0.401, -4.449e-7
-0.400, -4.428e-7
-0.399, -4.426e-7
-0.398, -4.420e-7
-0.397, -4.478e-7
-0.396, -4.321e-7
-0.395, -4.288e-7
-0.394, -4.345e-7
-0.393, -4.291e-7
-0.392, -4.268e-7
-0.391, -4.214e-7
-0.390, -4.203e-7
-0.389, -4.220e-7
-0.388, -4.190e-7
-0.387, -4.146e-7
-0.386, -4.152e-7
-0.385, -4.080e-7
-0.384, -4.045e-7
-0.383, -4.051e-7
-0.382, -4.063e-7
-0.381, -4.064e-7
-0.380, -3.980e-7
-0.379, -3.997e-7
-0.378, -3.989e-7
-0.377, -3.982e-7
-0.376, -3.909e-7
-0.375, -3.888e-7
-0.374, -3.911e-7
-0.373, -3.890e-7
-0.372, -3.868e-7
-0.371, -3.893e-7
-0.370, -3.849e-7
-0.369, -3.836e-7
-0.368, -3.812e-7
-0.367, -3.765e-7
-0.366, -3.775e-7
-0.365, -3.776e-7
-0.364, -3.725e-7
-0.363, -3.703e-7
-0.362, -3.740e-7
-0.361, -3.707e-7
-0.360, -3.676e-7
-0.359, -3.682e-7
-0.358, -3.660e-7
-0.357, -3.656e-7
-0.356, -3.644e-7
-0.355, -3.602e-7
-0.354, -3.612e-7
-0.353, -3.589e-7
-0.352, -3.612e-7
-0.351, -3.548e-7
-0.350, -3.554e-7
-0.349, -3.558e-7
-0.348, -3.503e-7
-0.347, -3.508e-7
-0.346, -3.565e-7
-0.345, -3.467e-7
-0.344, -3.446e-7
-0.343, -3.454e-7
-0.342, -3.451e-7
-0.341, -3.462e-7
-0.340, -3.403e-7
-0.339, -3.381e-7
-0.338, -3.411e-7
-0.337, -3.411e-7
-0.336, -3.389e-7
-0.335, -3.320e-7
-0.334, -3.344e-7
-0.333, -3.251e-7
-0.332, -3.301e-7
-0.331, -3.265e-7
-0.330, -3.262e-7
-0.329, -3.255e-7
-0.328, -3.265e-7
-0.327, -3.275e-7
-0.326, -3.203e-7
-0.325, -3.261e-7
-0.324, -3.199e-7
-0.323, -3.197e-7
-0.322, -3.219e-7
-0.321, -3.145e-7
-0.320, -3.221e-7
-0.319, -3.136e-7
-0.318, -3.127e-7
-0.317, -3.162e-7
-0.316, -3.090e-7
-0.315, -3.080e-7
-0.314, -3.072e-7
-0.313, -3.078e-7
-0.312, -3.065e-7
-0.311, -3.000e-7
-0.310, -3.005e-7
-0.309, -3.001e-7
-0.308, -2.969e-7
-0.307, -2.915e-7
-0.306, -2.936e-7
-0.305, -2.904e-7
-0.304, -2.932e-7
-0.303, -2.903e-7
-0.302, -2.901e-7
-0.301, -2.889e-7
-0.300, -2.821e-7
-0.299, -2.847e-7
-0.298, -2.836e-7
-0.297, -2.809e-7
-0.296, -2.777e-7
-0.295, -2.840e-7
-0.294, -2.799e-7
-0.293, -2.812e-7
-0.292, -2.756e-7
-0.291, -2.687e-7
-0.290, -2.705e-7
-0.289, -2.713e-7
-0.288, -2.722e-7
-0.287, -2.640e-7
-0.286, -2.598e-7
-0.285, -2.640e-7
-0.284, -2.612e-7
-0.283, -2.564e-7
-0.282, -2.546e-7
-0.281, -2.499e-7
-0.280, -2.551e-7
-0.279, -2.523e-7
-0.278, -2.485e-7
-0.277, -2.505e-7
-0.276, -2.410e-7
-0.275, -2.441e-7
-0.274, -2.454e-7
-0.273, -2.411e-7
-0.272, -2.378e-7
-0.271, -2.322e-7
-0.270, -2.361e-7
-0.269, -2.460e-7
-0.268, -2.314e-7
-0.267, -2.324e-7
-0.266, -2.296e-7
-0.265, -2.324e-7
-0.264, -2.312e-7
-0.263, -2.220e-7
-0.262, -2.237e-7
-0.261, -2.195e-7
-0.260, -2.226e-7
-0.259, -2.168e-7
-0.258, -2.136e-7
-0.257, -2.148e-7
-0.256, -2.086e-7
-0.255, -2.099e-7
-0.254, -2.092e-7
-0.253, -2.085e-7
-0.252, -2.018e-7
-0.251, -2.030e-7
-0.250, -2.066e-7
-0.249, -2.017e-7
-0.248, -1.957e-7
-0.247, -1.964e-7
-0.246, -1.953e-7
-0.245, -1.964e-7
-0.244, -1.945e-7
-0.243, -1.945e-7
-0.242, -1.896e-7
-0.241, -1.850e-7
-0.240, -1.875e-7
-0.239, -1.859e-7
-0.238, -1.803e-7
-0.237, -1.832e-7
-0.236, -1.809e-7
-0.235, -1.774e-7
-0.234, -1.809e-7
-0.233, -1.764e-7
-0.232, -1.784e-7
-0.231, -1.671e-7
-0.230, -1.639e-7
-0.229, -1.713e-7
-0.228, -1.707e-7
-0.227, -1.633e-7
-0.226, -1.663e-7
-0.225, -1.616e-7
-0.224, -1.633e-7
-0.223, -1.617e-7
-0.222, -1.613e-7
-0.221, -1.613e-7
-0.220, -1.566e-7
-0.219, -1.564e-7
-0.218, -1.671e-7
-0.217, -1.578e-7
-0.216, -1.548e-7
-0.215, -1.540e-7
-0.214, -1.567e-7
-0.213, -1.509e-7
-0.212, -1.520e-7
-0.211, -1.490e-7
-0.210, -1.499e-7
-0.209, -1.466e-7
-0.208, -1.470e-7
-0.207, -1.446e-7
-0.206, -1.405e-7
-0.205, -1.628e-7
-0.204, -1.491e-7
-0.203, -1.458e-7
-0.202, -1.492e-7
-0.201, -1.436e-7
-0.200, -1.388e-7
-0.199, -1.463e-7
-0.198, -1.418e-7
-0.197, -1.424e-7
-0.196, -1.375e-7
-0.195, -1.352e-7
-0.194, -1.407e-7
-0.193, -1.373e-7
-0.192, -1.462e-7
-0.191, -1.346e-7
-0.190, -1.336e-7
-0.189, -1.375e-7
-0.188, -1.341e-7
-0.187, -1.298e-7
-0.186, -1.331e-7
-0.185, -1.310e-7
-0.184, -1.377e-7
-0.183, -1.298e-7
-0.182, -1.313e-7
-0.181, -1.310e-7
-0.180, -1.277e-7
-0.179, -1.221e-7
-0.178, -1.270e-7
-0.177, -1.259e-7
-0.176, -1.272e-7
-0.175, -1.217e-7
-0.174, -1.274e-7
-0.173, -1.297e-7
-0.172, -1.212e-7
-0.171, -1.214e-7
-0.170, -1.244e-7
-0.169, -1.244e-7
-0.168, -1.233e-7
-0.167, -1.270e-7
-0.166, -1.231e-7
-0.165, -1.268e-7
-0.164, -1.240e-7
-0.163, -1.211e-7
-0.162, -1.223e-7
-0.161, -1.215e-7
-0.160, -1.206e-7
-0.159, -1.182e-7
-0.158, -1.161e-7
-0.157, -1.208e-7
-0.156, -1.172e-7
-0.155, -1.168e-7
-0.154, -1.236e-7
-0.153, -1.154e-7
-0.152, -1.177e-7
-0.151, -1.182e-7
-0.150, -1.159e-7
-0.149, -1.189e-7
-0.148, -1.111e-7
-0.147, -1.157e-7
-0.146, -1.175e-7
-0.145, -1.136e-7
-0.144, -1.175e-7
-0.143, -1.109e-7
-0.142, -1.137e-7
-0.141, -1.262e-7
-0.140, -1.142e-7
-0.139, -1.152e-7
-0.138, -1.111e-7
-0.137, -1.157e-7
-0.136, -1.137e-7
-0.135, -1.131e-7
-0.134, -1.162e-7
-0.133, -1.120e-7
-0.132, -1.106e-7
-0.131, -1.137e-7
-0.130, -1.121e-7
-0.129, -1.117e-7
-0.128, -9.977e-8
-0.127, -1.090e-7
-0.126, -1.126e-7
-0.125, -1.104e-7
-0.124, -1.110e-7
-0.123, -1.076e-7
-0.122, -1.123e-7
-0.121, -1.118e-7
-0.120, -1.100e-7
-0.119, -1.098e-7
-0.118, -1.074e-7
-0.117, -1.120e-7
-0.116, -1.105e-7
-0.115, -1.147e-7
-0.114, -1.158e-7
-0.113, -1.083e-7
-0.112, -1.116e-7
-0.111, -1.103e-7
-0.110, -1.099e-7
-0.109, -1.159e-7
-0.108, -1.077e-7
-0.107, -1.145e-7
-0.106, -1.130e-7
-0.105, -1.106e-7
-0.104, -1.140e-7
-0.103, -1.039e-7
-0.102, -1.115e-7
-0.101, -1.111e-7
-0.100, -1.089e-7
-0.099, -1.123e-7
-0.098, -1.117e-7
-0.097, -1.124e-7
-0.096, -1.113e-7
-0.095, -1.103e-7
-0.094, -1.164e-7
-0.093, -1.127e-7
-0.092, -1.134e-7
-0.091, -1.137e-7
-0.090, -1.204e-7
-0.089, -1.211e-7
-0.088, -1.177e-7
-0.087, -1.169e-7
-0.086, -1.159e-7
-0.085, -1.176e-7
-0.084, -1.209e-7
-0.083, -1.162e-7
-0.082, -1.194e-7
-0.081, -1.166e-7
-0.080, -1.208e-7
-0.079, -1.227e-7
-0.078, -1.164e-7
-0.077, -1.131e-7
-0.076, -1.177e-7
-0.075, -1.182e-7
-0.074, -1.260e-7
-0.073, -1.204e-7
-0.072, -1.218e-7
-0.071, -1.190e-7
-0.070, -1.248e-7
-0.069, -1.283e-7
-0.068, -1.246e-7
-0.067, -1.257e-7
-0.066, -1.264e-7
-0.065, -1.257e-7
-0.064, -1.399e-7
-0.063, -1.263e-7
-0.062, -1.275e-7
-0.061, -1.319e-7
-0.060, -1.302e-7
-0.059, -1.333e-7
-0.058, -1.293e-7
-0.057, -1.300e-7
-0.056, -1.327e-7
-0.055, -1.320e-7
-0.054, -1.369e-7
-0.053, -1.358e-7
-0.052, -1.337e-7
-0.051, -1.344e-7
-0.050, -1.371e-7
-0.049, -1.409e-7
-0.048, -1.348e-7
-0.047, -1.364e-7
-0.046, -1.384e-7
-0.045, -1.451e-7
-0.044, -1.429e-7
-0.043, -1.371e-7
-0.042, -1.443e-7
-0.041, -1.401e-7
-0.040, -1.452e-7
-0.039, -1.547e-7
-0.038, -1.433e-7
-0.037, -1.470e-7
-0.036, -1.443e-7
-0.035, -1.450e-7
-0.034, -1.535e-7
-0.033, -1.443e-7
-0.032, -1.517e-7
-0.031, -1.489e-7
-0.030, -1.489e-7
-0.029, -1.599e-7
-0.028, -1.493e-7
-0.027, -1.519e-7
-0.026, -1.495e-7
-0.025, -1.514e-7
-0.024, -1.579e-7
-0.023, -1.527e-7
-0.022, -1.598e-7
-0.021, -1.564e-7
-0.020, -1.573e-7
-0.019, -1.568e-7
-0.018, -1.583e-7
-0.017, -1.605e-7
-0.016, -1.592e-7
-0.015, -1.580e-7
-0.014, -1.641e-7
-0.013, -1.689e-7
-0.012, -1.627e-7
-0.011, -1.650e-7
-0.010, -1.677e-7
-0.009, -1.677e-7
-0.008, -1.661e-7
-0.007, -1.674e-7
-0.006, -1.656e-7
-0.005, -1.706e-7
-0.004, -1.695e-7
-0.003, -1.680e-7
-0.002, -1.741e-7
-0.001, -1.685e-7
-0.000, -1.995e-7
0.001, -1.760e-7
0.002, -1.786e-7
0.003, -1.829e-7
0.004, -1.726e-7
0.005, -1.733e-7
0.006, -1.809e-7
0.007, -1.809e-7
0.008, -1.815e-7
0.009, -1.771e-7
0.010, -1.810e-7
0.011, -1.856e-7
0.012, -1.819e-7
0.013, -1.880e-7
0.014, -1.819e-7
0.015, -1.849e-7
0.016, -1.853e-7
0.017, -1.819e-7
0.018, -1.856e-7
0.019, -1.868e-7
0.020, -1.854e-7
0.021, -1.873e-7
0.022, -1.860e-7
0.023, -1.863e-7
0.024, -1.883e-7
0.025, -1.812e-7
0.026, -1.881e-7
0.027, -1.876e-7
0.028, -1.867e-7
0.029, -1.847e-7
0.030, -1.929e-7
0.031, -1.926e-7
0.032, -1.916e-7
0.033, -1.900e-7
0.034, -1.888e-7
0.035, -1.940e-7
0.036, -1.979e-7
0.037, -1.882e-7
0.038, -2.001e-7
0.039, -1.930e-7
0.040, -1.989e-7
0.041, -1.993e-7
0.042, -1.938e-7
0.043, -1.964e-7
0.044, -1.979e-7
0.045, -2.013e-7
0.046, -1.969e-7
0.047, -1.978e-7
0.048, -1.949e-7
0.049, -1.923e-7
0.050, -2.008e-7
0.051, -2.048e-7
0.052, -1.966e-7
0.053, -1.983e-7
0.054, -2.002e-7
0.055, -2.024e-7
0.056, -1.992e-7
0.057, -1.959e-7
0.058, -2.038e-7
0.059, -2.027e-7
0.060, -2.022e-7
0.061, -1.989e-7
0.062, -2.007e-7
0.063, -2.007e-7
0.064, -2.087e-7
0.065, -2.063e-7
0.066, -2.009e-7
0.067, -2.036e-7
0.068, -2.007e-7
0.069, -2.018e-7
0.070, -2.063e-7
0.071, -2.014e-7
0.072, -1.999e-7
0.073, -2.034e-7
0.074, -2.006e-7
0.075, -2.089e-7
0.076, -1.970e-7
0.077, -1.886e-7
0.078, -2.045e-7
0.079, -2.004e-7
0.080, -2.020e-7
0.081, -2.005e-7
0.082, -1.952e-7
0.083, -2.030e-7
0.084, -1.976e-7
0.085, -1.982e-7
0.086, -1.996e-7
0.087, -1.992e-7
0.088, -1.989e-7
0.089, -2.014e-7
0.090, -1.991e-7
0.091, -2.018e-7
0.092, -1.957e-7
0.093, -1.969e-7
0.094, -1.967e-7
0.095, -1.976e-7
0.096, -1.968e-7
0.097, -1.958e-7
0.098, -1.942e-7
0.099, -1.948e-7
0.100, -1.943e-7
0.101, -1.893e-7
0.102, -1.863e-7
0.103, -1.909e-7
0.104, -1.885e-7
0.105, -1.894e-7
0.106, -1.853e-7
0.107, -1.898e-7
0.108, -1.856e-7
0.109, -1.867e-7
0.110, -1.901e-7
0.111, -1.894e-7
0.112, -1.835e-7
0.113, -1.854e-7
0.114, -1.809e-7
0.115, -1.962e-7
0.116, -1.849e-7
0.117, -1.826e-7
0.118, -1.840e-7
0.119, -1.804e-7
0.120, -1.846e-7
0.121, -1.814e-7
0.122, -1.771e-7
0.123, -1.792e-7
0.124, -1.759e-7
0.125, -1.790e-7
0.126, -1.816e-7
0.127, -1.775e-7
0.128, -1.671e-7
0.129, -1.694e-7
0.130, -1.749e-7
0.131, -1.755e-7
0.132, -1.716e-7
0.133, -1.698e-7
0.134, -1.718e-7
0.135, -1.749e-7
0.136, -1.686e-7
0.137, -1.677e-7
0.138, -1.688e-7
0.139, -1.709e-7
0.140, -1.740e-7
0.141, -1.754e-7
0.142, -1.704e-7
0.143, -1.689e-7
0.144, -1.682e-7
0.145, -1.686e-7
0.146, -1.711e-7
0.147, -1.689e-7
0.148, -1.653e-7
0.149, -1.659e-7
0.150, -1.721e-7
0.151, -1.681e-7
0.152, -1.655e-7
0.153, -1.693e-7
0.154, -1.716e-7
0.155, -1.732e-7
0.156, -1.690e-7
0.157, -1.670e-7
0.158, -1.772e-7
0.159, -1.731e-7
0.160, -1.719e-7
0.161, -1.743e-7
0.162, -1.679e-7
0.163, -1.748e-7
0.164, -1.734e-7
0.165, -1.713e-7
0.166, -1.818e-7
0.167, -1.728e-7
0.168, -1.781e-7
0.169, -1.789e-7
0.170, -1.801e-7
0.171, -1.790e-7
0.172, -1.788e-7
0.173, -1.816e-7
0.174, -1.841e-7
0.175, -1.848e-7
0.176, -1.852e-7
0.177, -1.846e-7
0.178, -1.861e-7
0.179, -1.785e-7
0.180, -1.809e-7
0.181, -1.820e-7
0.182, -1.863e-7
0.183, -1.898e-7
0.184, -1.862e-7
0.185, -1.854e-7
0.186, -1.897e-7
0.187, -1.898e-7
0.188, -1.926e-7
0.189, -1.865e-7
0.190, -1.859e-7
0.191, -1.885e-7
0.192, -1.979e-7
0.193, -1.909e-7
0.194, -1.885e-7
0.195, -1.913e-7
0.196, -1.877e-7
0.197, -1.858e-7
0.198, -1.910e-7
0.199, -1.881e-7
0.200, -1.855e-7
0.201, -1.844e-7
0.202, -1.809e-7
0.203, -1.871e-7
0.204, -1.847e-7
0.205, -1.929e-7
0.206, -1.845e-7
0.207, -1.791e-7
0.208, -1.802e-7
0.209, -1.704e-7
0.210, -1.714e-7
0.211, -1.739e-7
0.212, -1.639e-7
0.213, -1.636e-7
0.214, -1.597e-7
0.215, -1.555e-7
0.216, -1.565e-7
0.217, -1.549e-7
0.218, -1.479e-7
0.219, -1.450e-7
0.220, -1.407e-7
0.221, -1.340e-7
0.222, -1.301e-7
0.223, -1.242e-7
0.224, -1.213e-7
0.225, -1.098e-7
0.226, -1.099e-7
0.227, -1.033e-7
0.228, -9.392e-8
0.229, -8.301e-8
0.230, -7.648e-8
0.231, -7.492e-8
0.232, -6.381e-8
0.233, -5.933e-8
0.234, -5.709e-8
0.235, -4.227e-8
0.236, -3.984e-8
0.237, -2.473e-8
0.238, -2.493e-8
0.239, -1.012e-8
0.240, -6.315e-9
0.241, 5.672e-9
0.242, 1.620e-8
0.243, 1.093e-8
0.244, 3.062e-8
0.245, 3.783e-8
0.246, 4.514e-8
0.247, 6.093e-8
0.248, 6.960e-8
0.249, 7.701e-8
0.250, 8.675e-8
0.251, 9.796e-8
0.252, 1.128e-7
0.253, 1.202e-7
0.254, 1.272e-7
0.255, 1.406e-7
0.256, 1.485e-7
0.257, 1.690e-7
0.258, 1.739e-7
0.259, 1.841e-7
0.260, 2.004e-7
0.261, 2.158e-7
0.262, 2.277e-7
0.263, 2.357e-7
0.264, 2.514e-7
0.265, 2.675e-7
0.266, 2.780e-7
0.267, 2.959e-7
0.268, 3.047e-7
0.269, 3.141e-7
0.270, 3.344e-7
0.271, 3.530e-7
0.272, 3.661e-7
0.273, 3.812e-7
0.274, 3.977e-7
0.275, 4.071e-7
0.276, 4.295e-7
0.277, 4.517e-7
0.278, 4.640e-7
0.279, 4.836e-7
0.280, 5.009e-7
0.281, 5.275e-7
0.282, 5.471e-7
0.283, 5.550e-7
0.284, 5.823e-7
0.285, 6.040e-7
0.286, 6.222e-7
0.287, 6.431e-7
0.288, 6.582e-7
0.289, 6.811e-7
0.290, 7.083e-7
0.291, 7.331e-7
0.292, 7.569e-7
0.293, 7.794e-7
0.294, 7.978e-7
0.295, 8.266e-7
0.296, 8.525e-7
0.297, 8.799e-7
0.298, 9.050e-7
0.299, 9.336e-7
0.300, 9.672e-7
0.301, 9.930e-7
0.302, 1.022e-6
0.303, 1.048e-6
0.304, 1.081e-6
0.305, 1.117e-6
0.306, 1.148e-6
0.307, 1.196e-6
0.308, 1.224e-6
0.309, 1.258e-6
0.310, 1.293e-6
0.311, 1.334e-6
0.312, 1.377e-6
0.313, 1.410e-6
0.314, 1.454e-6
0.315, 1.491e-6
0.316, 1.538e-6
0.317, 1.588e-6
0.318, 1.625e-6
0.319, 1.680e-6
0.320, 1.710e-6
0.321, 1.769e-6
0.322, 1.826e-6
0.323, 1.868e-6
0.324, 1.925e-6
0.325, 1.981e-6
0.326, 2.042e-6
0.327, 2.101e-6
0.328, 2.160e-6
0.329, 2.233e-6
0.330, 2.287e-6
0.331, 2.361e-6
0.332, 2.439e-6
0.333, 2.531e-6
0.334, 2.588e-6
0.335, 2.659e-6
0.336, 2.738e-6
0.337, 2.831e-6
0.338, 2.906e-6
0.339, 2.992e-6
0.340, 3.071e-6
0.341, 3.188e-6
0.342, 3.277e-6
0.343, 3.369e-6
0.344, 3.463e-6
0.345, 3.567e-6
0.346, 3.689e-6
0.347, 3.799e-6
0.348, 3.919e-6
0.349, 4.039e-6
0.350, 4.166e-6
0.351, 4.301e-6
0.352, 4.426e-6
0.353, 4.573e-6
0.354, 4.711e-6
0.355, 4.869e-6
0.356, 5.028e-6
0.357, 5.182e-6
0.358, 5.330e-6
0.359, 5.510e-6
0.360, 5.681e-6
0.361, 5.879e-6
0.362, 6.065e-6
0.363, 6.230e-6
0.364, 6.464e-6
0.365, 6.664e-6
0.366, 6.894e-6
0.367, 7.115e-6
0.368, 7.323e-6
0.369, 7.591e-6
0.370, 7.838e-6
0.371, 8.054e-6
0.372, 8.342e-6
0.373, 8.623e-6
0.374, 8.913e-6
0.375, 9.198e-6
0.376, 9.512e-6
0.377, 9.839e-6
0.378, 1.015e-5
0.379, 1.049e-5
0.380, 1.084e-5
0.381, 1.122e-5
0.382, 1.158e-5
0.383, 1.196e-5
0.384, 1.245e-5
0.385, 1.282e-5
0.386, 1.326e-5
0.387, 1.367e-5
0.388, 1.413e-5
0.389, 1.464e-5
0.390, 1.509e-5
0.391, 1.562e-5
0.392, 1.613e-5
0.393, 1.667e-5
0.394, 1.727e-5
0.395, 1.780e-5
0.396, 1.840e-5
0.397, 1.889e-5
0.398, 1.961e-5
0.399, 2.034e-5
0.400, 2.093e-5
0.401, 2.169e-5
0.402, 2.242e-5
0.403, 2.311e-5
0.404, 2.393e-5
0.405, 2.470e-5
0.406, 2.556e-5
0.407, 2.633e-5
0.408, 2.716e-5
0.409, 2.791e-5
0.410, 2.841e-5
0.411, 2.962e-5
0.412, 3.065e-5
0.413, 3.160e-5
0.414, 3.273e-5
0.415, 3.378e-5
0.416, 3.482e-5
0.417, 3.597e-5
0.418, 3.711e-5
0.419, 3.829e-5
0.420, 3.951e-5
0.421, 4.068e-5
0.422, 4.177e-5
0.423, 4.305e-5
0.424, 4.444e-5
0.425, 4.577e-5
0.426, 4.717e-5
0.427, 4.855e-5
0.428, 4.988e-5
0.429, 5.147e-5
0.430, 5.292e-5
0.431, 5.451e-5
0.432, 5.588e-5
0.433, 5.760e-5
0.434, 5.924e-5
0.435, 6.097e-5
0.436, 6.269e-5
0.437, 6.422e-5
0.438, 6.578e-5
0.439, 6.759e-5
0.440, 6.905e-5
0.441, 7.108e-5
0.442, 7.267e-5
0.443, 7.438e-5
0.444, 7.638e-5
0.445, 7.796e-5
0.446, 7.994e-5
0.447, 8.165e-5
0.448, 8.299e-5
0.449, 8.518e-5
0.450, 8.709e-5
0.451, 8.902e-5
0.452, 9.076e-5
0.453, 9.260e-5
0.454, 9.464e-5
0.455, 9.631e-5
0.456, 9.820e-5
0.457, 1.002e-4
0.458, 1.019e-4
0.459, 1.038e-4
0.460, 1.056e-4
0.461, 1.071e-4
0.462, 1.090e-4
0.463, 1.107e-4
0.464, 1.124e-4
0.465, 1.139e-4
0.466, 1.157e-4
0.467, 1.171e-4
0.468, 1.188e-4
0.469, 1.204e-4
0.470, 1.218e-4
0.471, 1.234e-4
0.472, 1.246e-4
0.473, 1.259e-4
0.474, 1.270e-4
0.475, 1.284e-4
0.476, 1.299e-4
0.477, 1.308e-4
0.478, 1.322e-4
0.479, 1.332e-4
0.480, 1.340e-4
0.481, 1.352e-4
0.482, 1.361e-4
0.483, 1.369e-4
0.484, 1.379e-4
0.485, 1.384e-4
0.486, 1.397e-4
0.487, 1.402e-4
0.488, 1.405e-4
0.489, 1.411e-4
0.490, 1.414e-4
0.491, 1.420e-4
0.492, 1.423e-4
0.493, 1.425e-4
0.494, 1.430e-4
0.495, 1.430e-4
0.496, 1.432e-4
0.497, 1.433e-4
0.498, 1.434e-4
0.499, 1.432e-4
0.500, 1.432e-4
0.501, 1.433e-4
0.502, 1.432e-4
0.503, 1.432e-4
0.504, 1.430e-4
0.505, 1.427e-4
0.506, 1.425e-4
0.507, 1.422e-4
0.508, 1.419e-4
0.509, 1.416e-4
0.510, 1.412e-4
0.511, 1.409e-4
0.512, 1.406e-4
0.513, 1.401e-4
0.514, 1.397e-4
0.515, 1.390e-4
0.516, 1.386e-4
0.517, 1.380e-4
0.518, 1.374e-4
0.519, 1.369e-4
0.520, 1.362e-4
0.521, 1.358e-4
0.522, 1.351e-4
0.523, 1.345e-4
0.524, 1.339e-4
0.525, 1.330e-4
0.526, 1.325e-4
0.527, 1.318e-4
0.528, 1.311e-4
0.529, 1.305e-4
0.530, 1.298e-4
0.531, 1.291e-4
0.532, 1.284e-4
0.533, 1.277e-4
0.534, 1.271e-4
0.535, 1.263e-4
0.536, 1.256e-4
0.537, 1.251e-4
0.538, 1.244e-4
0.539, 1.236e-4
0.540, 1.229e-4
0.541, 1.222e-4
0.542, 1.215e-4
0.543, 1.208e-4
0.544, 1.202e-4
0.545, 1.195e-4
0.546, 1.188e-4
0.547, 1.181e-4
0.548, 1.174e-4
0.549, 1.168e-4
0.550, 1.160e-4
0.551, 1.154e-4
0.552, 1.147e-4
0.553, 1.141e-4
0.554, 1.135e-4
0.555, 1.128e-4
0.556, 1.122e-4
0.557, 1.116e-4
0.558, 1.110e-4
0.559, 1.104e-4
0.560, 1.098e-4
0.561, 1.092e-4
0.562, 1.086e-4
0.563, 1.080e-4
0.564, 1.074e-4
0.565, 1.069e-4
0.566, 1.063e-4
0.567, 1.057e-4
0.568, 1.052e-4
0.569, 1.047e-4
0.570, 1.041e-4
0.571, 1.036e-4
0.572, 1.031e-4
0.573, 1.025e-4
0.574, 1.020e-4
0.575, 1.015e-4
0.576, 1.010e-4
0.577, 1.005e-4
0.578, 1.000e-4
0.579, 9.957e-5
0.580, 9.910e-5
0.581, 9.864e-5
0.582, 9.816e-5
0.583, 9.771e-5
0.584, 9.728e-5
0.585, 9.683e-5
0.586, 9.640e-5
0.587, 9.596e-5
0.588, 9.555e-5
0.589, 9.518e-5
0.590, 9.473e-5
0.591, 9.433e-5
0.592, 9.392e-5
0.593, 9.353e-5
0.594, 9.314e-5
0.595, 9.275e-5
0.596, 9.238e-5
0.597, 9.200e-5
0.598, 9.163e-5
0.599, 9.127e-5
0.600, 9.091e-5
0.601, 9.055e-5
0.602, 9.020e-5
0.603, 8.986e-5
0.604, 8.953e-5
0.605, 8.920e-5
0.606, 8.887e-5
0.607, 8.855e-5
0.608, 8.823e-5
0.609, 8.792e-5
0.610, 8.760e-5
0.611, 8.729e-5
0.612, 8.700e-5
0.613, 8.669e-5
0.614, 8.636e-5
0.615, 8.608e-5
0.616, 8.580e-5
0.617, 8.552e-5
0.618, 8.523e-5
0.619, 8.496e-5
0.620, 8.469e-5
0.621, 8.442e-5
0.622, 8.415e-5
0.623, 8.389e-5
0.624, 8.364e-5
0.625, 8.339e-5
0.626, 8.313e-5
0.627, 8.286e-5
0.628, 8.263e-5
0.629, 8.239e-5
0.630, 8.214e-5
0.631, 8.191e-5
0.632, 8.167e-5
0.633, 8.144e-5
0.634, 8.121e-5
0.635, 8.099e-5
0.636, 8.077e-5
0.637, 8.055e-5
0.638, 8.033e-5
0.639, 8.012e-5
0.640, 7.992e-5
0.641, 7.970e-5
0.642, 7.949e-5
0.643, 7.929e-5
0.644, 7.910e-5
0.645, 7.889e-5
0.646, 7.869e-5
0.647, 7.849e-5
0.648, 7.829e-5
0.649, 7.811e-5
0.650, 7.792e-5
0.651, 7.772e-5
0.652, 7.754e-5
0.653, 7.734e-5
0.654, 7.717e-5
0.655, 7.701e-5
0.656, 7.682e-5
0.657, 7.664e-5
0.658, 7.647e-5
0.659, 7.630e-5
0.660, 7.613e-5
0.661, 7.596e-5
0.662, 7.579e-5
0.663, 7.563e-5
0.664, 7.548e-5
0.665, 7.531e-5
0.666, 7.515e-5
0.667, 7.499e-5
0.668, 7.485e-5
0.669, 7.469e-5
0.670, 7.453e-5
0.671, 7.439e-5
0.672, 7.423e-5
0.673, 7.409e-5
0.674, 7.395e-5
0.675, 7.380e-5
0.676, 7.367e-5
0.677, 7.352e-5
0.678, 7.337e-5
0.679, 7.324e-5
0.680, 7.309e-5
0.681, 7.296e-5
0.682, 7.283e-5
0.683, 7.269e-5
0.684, 7.256e-5
0.685, 7.243e-5
0.686, 7.230e-5
0.687, 7.218e-5
0.688, 7.206e-5
0.689, 7.194e-5
0.690, 7.181e-5
0.691, 7.170e-5
0.692, 7.156e-5
0.693, 7.144e-5
0.694, 7.132e-5
0.695, 7.119e-5
0.696, 7.108e-5
0.697, 7.096e-5
0.698, 7.084e-5
0.699, 7.073e-5
0.700, 7.061e-5
0.701, 7.051e-5
0.702, 7.039e-5
0.703, 7.028e-5
0.704, 7.016e-5
0.705, 7.007e-5
0.706, 6.996e-5
0.707, 6.985e-5
0.708, 6.975e-5
0.709, 6.965e-5
0.710, 6.953e-5
0.711, 6.944e-5
0.712, 6.932e-5
0.713, 6.923e-5
0.714, 6.913e-5
0.715, 6.902e-5
0.716, 6.894e-5
0.717, 6.885e-5
0.718, 6.874e-5
0.719, 6.865e-5
0.720, 6.855e-5
0.721, 6.847e-5
0.722, 6.837e-5
0.723, 6.827e-5
0.724, 6.819e-5
0.725, 6.810e-5
0.726, 6.801e-5
0.727, 6.792e-5
0.728, 6.783e-5
0.729, 6.775e-5
0.730, 6.766e-5
0.731, 6.757e-5
0.732, 6.749e-5
0.733, 6.741e-5
0.734, 6.732e-5
0.735, 6.724e-5
0.736, 6.715e-5
0.737, 6.707e-5
0.738, 6.699e-5
0.739, 6.691e-5
0.740, 6.683e-5
0.741, 6.676e-5
0.742, 6.669e-5
0.743, 6.660e-5
0.744, 6.653e-5
0.745, 6.646e-5
0.746, 6.638e-5
0.747, 6.630e-5
0.748, 6.623e-5
0.749, 6.616e-5
0.750, 6.608e-5
0.751, 6.601e-5
0.752, 6.594e-5
0.753, 6.586e-5
0.754, 6.580e-5
0.755, 6.570e-5
0.756, 6.565e-5
0.757, 6.559e-5
0.758, 6.551e-5
0.759, 6.545e-5
0.760, 6.539e-5
0.761, 6.533e-5
0.762, 6.526e-5
0.763, 6.519e-5
0.764, 6.513e-5
0.765, 6.506e-5
0.766, 6.499e-5
0.767, 6.493e-5
0.768, 6.486e-5
0.769, 6.481e-5
0.770, 6.474e-5
0.771, 6.468e-5
0.772, 6.463e-5
0.773, 6.458e-5
0.774, 6.451e-5
0.775, 6.445e-5
0.776, 6.440e-5
0.777, 6.434e-5
0.778, 6.428e-5
0.779, 6.422e-5
0.780, 6.416e-5
0.781, 6.409e-5
0.782, 6.404e-5
0.783, 6.398e-5
0.784, 6.393e-5
0.785, 6.388e-5
0.786, 6.383e-5
0.787, 6.376e-5
0.788, 6.372e-5
0.789, 6.367e-5
0.790, 6.362e-5
0.791, 6.357e-5
0.792, 6.352e-5
0.793, 6.348e-5
0.794, 6.343e-5
0.795, 6.336e-5
0.796, 6.332e-5
0.797, 6.326e-5
0.798, 6.320e-5
0.799, 6.316e-5
0.800, 6.310e-5
0.801, 6.306e-5
0.802, 6.301e-5
0.803, 6.297e-5
0.804, 6.293e-5
0.805, 6.288e-5
0.806, 6.282e-5
0.807, 6.277e-5
0.808, 6.273e-5
0.809, 6.270e-5
0.810, 6.265e-5
0.811, 6.260e-5
0.812, 6.256e-5
0.813, 6.252e-5
0.814, 6.247e-5
0.815, 6.243e-5
0.816, 6.239e-5
0.817, 6.234e-5
0.818, 6.230e-5
0.819, 6.220e-5
0.820, 6.219e-5
0.821, 6.216e-5
0.822, 6.211e-5
0.823, 6.207e-5
0.824, 6.204e-5
0.825, 6.199e-5
0.826, 6.195e-5
0.827, 6.190e-5
0.828, 6.188e-5
0.829, 6.184e-5
0.830, 6.180e-5
0.831, 6.177e-5
0.832, 6.171e-5
0.833, 6.170e-5
0.834, 6.167e-5
0.835, 6.162e-5
0.836, 6.159e-5
0.837, 6.155e-5
0.838, 6.150e-5
0.839, 6.147e-5
0.840, 6.142e-5
0.841, 6.139e-5
0.842, 6.135e-5
0.843, 6.132e-5
0.844, 6.130e-5
0.845, 6.127e-5
0.846, 6.123e-5
0.847, 6.120e-5
0.848, 6.117e-5
0.849, 6.115e-5
0.850, 6.111e-5
0.851, 6.108e-5
0.852, 6.105e-5
0.853, 6.102e-5
0.854, 6.098e-5
0.855, 6.094e-5
0.856, 6.091e-5
0.857, 6.087e-5
0.858, 6.084e-5
0.859, 6.081e-5
0.860, 6.079e-5
0.861, 6.076e-5
0.862, 6.074e-5
0.863, 6.072e-5
0.864, 6.070e-5
0.865, 6.067e-5
0.866, 6.064e-5
0.867, 6.061e-5
0.868, 6.059e-5
0.869, 6.056e-5
0.870, 6.052e-5
0.871, 6.050e-5
0.872, 6.047e-5
0.873, 6.046e-5
0.874, 6.043e-5
0.875, 6.039e-5
0.876, 6.039e-5
0.877, 6.036e-5
0.878, 6.034e-5
0.879, 6.033e-5
0.880, 6.030e-5
0.881, 6.029e-5
0.882, 6.026e-5
0.883, 6.023e-5
0.884, 6.023e-5
0.885, 6.020e-5
0.886, 6.018e-5
0.887, 6.016e-5
0.888, 6.014e-5
0.889, 6.012e-5
0.890, 6.009e-5
0.891, 6.008e-5
0.892, 6.007e-5
0.893, 6.005e-5
0.894, 6.004e-5
0.895, 6.002e-5
0.896, 6.003e-5
0.897, 6.001e-5
0.898, 5.999e-5
0.899, 5.998e-5
0.900, 5.996e-5
0.901, 5.995e-5
0.902, 5.993e-5
0.903, 5.992e-5
0.904, 5.990e-5
0.905, 5.989e-5
0.906, 5.987e-5
0.907, 5.986e-5
0.908, 5.986e-5
0.909, 5.984e-5
0.910, 5.983e-5
0.911, 5.983e-5
0.912, 5.982e-5
0.913, 5.982e-5
0.914, 5.981e-5
0.915, 5.980e-5
0.916, 5.980e-5
0.917, 5.979e-5
0.918, 5.979e-5
0.919, 5.978e-5
0.920, 5.977e-5
0.921, 5.979e-5
0.922, 5.977e-5
0.923, 5.977e-5
0.924, 5.977e-5
0.925, 5.976e-5
0.926, 5.976e-5
0.927, 5.977e-5
0.928, 5.977e-5
0.929, 5.977e-5
0.930, 5.977e-5
0.931, 5.977e-5
0.932, 5.978e-5
0.933, 5.979e-5
0.934, 5.977e-5
0.935, 5.978e-5
0.936, 5.978e-5
0.937, 5.980e-5
0.938, 5.980e-5
0.939, 5.980e-5
0.940, 5.981e-5
0.941, 5.982e-5
0.942, 5.982e-5
0.943, 5.985e-5
0.944, 5.984e-5
0.945, 5.987e-5
0.946, 5.988e-5
0.947, 5.991e-5
0.948, 5.992e-5
0.949, 5.993e-5
0.950, 5.994e-5
0.951, 5.995e-5
0.952, 5.997e-5
0.953, 5.999e-5
0.954, 6.000e-5
0.955, 6.000e-5
0.956, 6.003e-5
0.957, 6.006e-5
0.958, 6.007e-5
0.959, 6.010e-5
0.960, 6.011e-5
0.961, 6.015e-5
0.962, 6.018e-5
0.963, 6.020e-5
0.964, 6.023e-5
0.965, 6.026e-5
0.966, 6.029e-5
0.967, 6.031e-5
0.968, 6.034e-5
0.969, 6.038e-5
0.970, 6.040e-5
0.971, 6.043e-5
0.972, 6.046e-5
0.973, 6.051e-5
0.974, 6.053e-5
0.975, 6.057e-5
0.976, 6.062e-5
0.977, 6.066e-5
0.978, 6.071e-5
0.979, 6.074e-5
0.980, 6.080e-5
0.981, 6.085e-5
0.982, 6.088e-5
0.983, 6.094e-5
0.984, 6.099e-5
0.985, 6.102e-5
0.986, 6.108e-5
0.987, 6.112e-5
0.988, 6.119e-5
0.989, 6.125e-5
0.990, 6.129e-5
0.991, 6.136e-5
0.992, 6.141e-5
0.993, 6.148e-5
0.994, 6.156e-5
0.995, 6.160e-5
0.996, 6.169e-5
0.997, 6.176e-5
0.998, 6.185e-5
0.999, 6.191e-5
1.000, 6.109e-5
0.999, 6.045e-5
0.998, 6.010e-5
0.997, 5.984e-5
0.996, 5.957e-5
0.995, 5.934e-5
0.994, 5.912e-5
0.993, 5.891e-5
0.992, 5.872e-5
0.991, 5.853e-5
0.990, 5.834e-5
0.989, 5.817e-5
0.988, 5.800e-5
0.987, 5.784e-5
0.986, 5.771e-5
0.985, 5.754e-5
0.984, 5.739e-5
0.983, 5.725e-5
0.982, 5.711e-5
0.981, 5.697e-5
0.980, 5.683e-5
0.979, 5.671e-5
0.978, 5.659e-5
0.977, 5.646e-5
0.976, 5.635e-5
0.975, 5.622e-5
0.974, 5.612e-5
0.973, 5.602e-5
0.972, 5.589e-5
0.971, 5.578e-5
0.970, 5.569e-5
0.969, 5.559e-5
0.968, 5.548e-5
0.967, 5.540e-5
0.966, 5.530e-5
0.965, 5.520e-5
0.964, 5.512e-5
0.963, 5.502e-5
0.962, 5.494e-5
0.961, 5.486e-5
0.960, 5.479e-5
0.959, 5.469e-5
0.958, 5.462e-5
0.957, 5.454e-5
0.956, 5.445e-5
0.955, 5.437e-5
0.954, 5.432e-5
0.953, 5.423e-5
0.952, 5.416e-5
0.951, 5.409e-5
0.950, 5.401e-5
0.949, 5.395e-5
0.948, 5.387e-5
0.947, 5.380e-5
0.946, 5.376e-5
0.945, 5.368e-5
0.944, 5.364e-5
0.943, 5.357e-5
0.942, 5.352e-5
0.941, 5.347e-5
0.940, 5.339e-5
0.939, 5.336e-5
0.938, 5.330e-5
0.937, 5.324e-5
0.936, 5.319e-5
0.935, 5.314e-5
0.934, 5.309e-5
0.933, 5.304e-5
0.932, 5.297e-5
0.931, 5.293e-5
0.930, 5.289e-5
0.929, 5.284e-5
0.928, 5.279e-5
0.927, 5.275e-5
0.926, 5.270e-5
0.925, 5.266e-5
0.924, 5.262e-5
0.923, 5.257e-5
0.922, 5.252e-5
0.921, 5.249e-5
0.920, 5.245e-5
0.919, 5.242e-5
0.918, 5.237e-5
0.917, 5.233e-5
0.916, 5.229e-5
0.915, 5.225e-5
0.914, 5.223e-5
0.913, 5.218e-5
0.912, 5.214e-5
0.911, 5.212e-5
0.910, 5.208e-5
0.909, 5.207e-5
0.908, 5.201e-5
0.907, 5.198e-5
0.906, 5.196e-5
0.905, 5.191e-5
0.904, 5.189e-5
0.903, 5.185e-5
0.902, 5.183e-5
0.901, 5.180e-5
0.900, 5.176e-5
0.899, 5.173e-5
0.898, 5.171e-5
0.897, 5.167e-5
0.896, 5.163e-5
0.895, 5.160e-5
0.894, 5.159e-5
0.893, 5.156e-5
0.892, 5.152e-5
0.891, 5.151e-5
0.890, 5.148e-5
0.889, 5.147e-5
0.888, 5.144e-5
0.887, 5.141e-5
0.886, 5.139e-5
0.885, 5.136e-5
0.884, 5.134e-5
0.883, 5.131e-5
0.882, 5.130e-5
0.881, 5.126e-5
0.880, 5.124e-5
0.879, 5.122e-5
0.878, 5.120e-5
0.877, 5.118e-5
0.876, 5.115e-5
0.875, 5.112e-5
0.874, 5.111e-5
0.873, 5.108e-5
0.872, 5.106e-5
0.871, 5.105e-5
0.870, 5.102e-5
0.869, 5.101e-5
0.868, 5.098e-5
0.867, 5.097e-5
0.866, 5.096e-5
0.865, 5.092e-5
0.864, 5.092e-5
0.863, 5.090e-5
0.862, 5.088e-5
0.861, 5.086e-5
0.860, 5.083e-5
0.859, 5.083e-5
0.858, 5.083e-5
0.857, 5.080e-5
0.856, 5.078e-5
0.855, 5.077e-5
0.854, 5.075e-5
0.853, 5.074e-5
0.852, 5.071e-5
0.851, 5.069e-5
0.850, 5.068e-5
0.849, 5.065e-5
0.848, 5.064e-5
0.847, 5.062e-5
0.846, 5.061e-5
0.845, 5.058e-5
0.844, 5.058e-5
0.843, 5.057e-5
0.842, 5.056e-5
0.841, 5.054e-5
0.840, 5.053e-5
0.839, 5.053e-5
0.838, 5.051e-5
0.837, 5.049e-5
0.836, 5.047e-5
0.835, 5.045e-5
0.834, 5.045e-5
0.833, 5.042e-5
0.832, 5.042e-5
0.831, 5.040e-5
0.830, 5.038e-5
0.829, 5.039e-5
0.828, 5.036e-5
0.827, 5.035e-5
0.826, 5.035e-5
0.825, 5.033e-5
0.824, 5.033e-5
0.823, 5.031e-5
0.822, 5.030e-5
0.821, 5.028e-5
0.820, 5.030e-5
0.819, 5.029e-5
0.818, 5.026e-5
0.817, 5.024e-5
0.816, 5.023e-5
0.815, 5.022e-5
0.814, 5.022e-5
0.813, 5.021e-5
0.812, 5.020e-5
0.811, 5.018e-5
0.810, 5.018e-5
0.809, 5.017e-5
0.808, 5.015e-5
0.807, 5.016e-5
0.806, 5.014e-5
0.805, 5.012e-5
0.804, 5.010e-5
0.803, 5.009e-5
0.802, 5.008e-5
0.801, 5.006e-5
0.800, 5.005e-5
0.799, 5.005e-5
0.798, 5.004e-5
0.797, 5.004e-5
0.796, 5.003e-5
0.795, 5.002e-5
0.794, 5.001e-5
0.793, 5.001e-5
0.792, 5.000e-5
0.791, 4.999e-5
0.790, 4.998e-5
0.789, 4.997e-5
0.788, 4.995e-5
0.787, 4.995e-5
0.786, 4.994e-5
0.785, 4.992e-5
0.784, 4.992e-5
0.783, 4.992e-5
0.782, 4.992e-5
0.781, 4.993e-5
0.780, 4.990e-5
0.779, 4.989e-5
0.778, 4.989e-5
0.777, 4.988e-5
0.776, 4.986e-5
0.775, 4.985e-5
0.774, 4.985e-5
0.773, 4.983e-5
0.772, 4.983e-5
0.771, 4.981e-5
0.770, 4.981e-5
0.769, 4.981e-5
0.768, 4.980e-5
0.767, 4.980e-5
0.766, 4.978e-5
0.765, 4.978e-5
0.764, 4.978e-5
0.763, 4.977e-5
0.762, 4.977e-5
0.761, 4.975e-5
0.760, 4.974e-5
0.759, 4.974e-5
0.758, 4.972e-5
0.757, 4.972e-5
0.756, 4.970e-5
0.755, 4.970e-5
0.754, 4.970e-5
0.753, 4.969e-5
0.752, 4.968e-5
0.751, 4.967e-5
0.750, 4.967e-5
0.749, 4.967e-5
0.748, 4.966e-5
0.747, 4.964e-5
0.746, 4.964e-5
0.745, 4.962e-5
0.744, 4.962e-5
0.743, 4.960e-5
0.742, 4.960e-5
0.741, 4.959e-5
0.740, 4.958e-5
0.739, 4.959e-5
0.738, 4.958e-5
0.737, 4.957e-5
0.736, 4.956e-5
0.735, 4.956e-5
0.734, 4.955e-5
0.733, 4.954e-5
0.732, 4.953e-5
0.731, 4.952e-5
0.730, 4.953e-5
0.729, 4.952e-5
0.728, 4.951e-5
0.727, 4.950e-5
0.726, 4.949e-5
0.725, 4.949e-5
0.724, 4.948e-5
0.723, 4.947e-5
0.722, 4.947e-5
0.721, 4.946e-5
0.720, 4.945e-5
0.719, 4.945e-5
0.718, 4.944e-5
0.717, 4.942e-5
0.716, 4.941e-5
0.715, 4.941e-5
0.714, 4.941e-5
0.713, 4.939e-5
0.712, 4.938e-5
0.711, 4.937e-5
0.710, 4.937e-5
0.709, 4.937e-5
0.708, 4.936e-5
0.707, 4.937e-5
0.706, 4.936e-5
0.705, 4.935e-5
0.704, 4.935e-5
0.703, 4.933e-5
0.702, 4.933e-5
0.701, 4.931e-5
0.700, 4.930e-5
0.699, 4.930e-5
0.698, 4.929e-5
0.697, 4.928e-5
0.696, 4.927e-5
0.695, 4.927e-5
0.694, 4.927e-5
0.693, 4.926e-5
0.692, 4.924e-5
0.691, 4.923e-5
0.690, 4.924e-5
0.689, 4.923e-5
0.688, 4.921e-5
0.687, 4.921e-5
0.686, 4.920e-5
0.685, 4.920e-5
0.684, 4.918e-5
0.683, 4.917e-5
0.682, 4.917e-5
0.681, 4.916e-5
0.680, 4.915e-5
0.679, 4.915e-5
0.678, 4.914e-5
0.677, 4.914e-5
0.676, 4.911e-5
0.675, 4.911e-5
0.674, 4.910e-5
0.673, 4.909e-5
0.672, 4.907e-5
0.671, 4.906e-5
0.670, 4.905e-5
0.669, 4.905e-5
0.668, 4.903e-5
0.667, 4.902e-5
0.666, 4.902e-5
0.665, 4.900e-5
0.664, 4.900e-5
0.663, 4.899e-5
0.662, 4.898e-5
0.661, 4.896e-5
0.660, 4.895e-5
0.659, 4.894e-5
0.658, 4.892e-5
0.657, 4.891e-5
0.656, 4.888e-5
0.655, 4.887e-5
0.654, 4.886e-5
0.653, 4.886e-5
0.652, 4.883e-5
0.651, 4.882e-5
0.650, 4.881e-5
0.649, 4.880e-5
0.648, 4.878e-5
0.647, 4.877e-5
0.646, 4.875e-5
0.645, 4.873e-5
0.644, 4.871e-5
0.643, 4.868e-5
0.642, 4.867e-5
0.641, 4.864e-5
0.640, 4.860e-5
0.639, 4.859e-5
0.638, 4.857e-5
0.637, 4.855e-5
0.636, 4.852e-5
0.635, 4.851e-5
0.634, 4.850e-5
0.633, 4.846e-5
0.632, 4.844e-5
0.631, 4.841e-5
0.630, 4.839e-5
0.629, 4.837e-5
0.628, 4.833e-5
0.627, 4.830e-5
0.626, 4.827e-5
0.625, 4.822e-5
0.624, 4.820e-5
0.623, 4.814e-5
0.622, 4.811e-5
0.621, 4.808e-5
0.620, 4.803e-5
0.619, 4.800e-5
0.618, 4.796e-5
0.617, 4.792e-5
0.616, 4.787e-5
0.615, 4.786e-5
0.614, 4.781e-5
0.613, 4.774e-5
0.612, 4.769e-5
0.611, 4.763e-5
0.610, 4.758e-5
0.609, 4.752e-5
0.608, 4.746e-5
0.607, 4.739e-5
0.606, 4.733e-5
0.605, 4.727e-5
0.604, 4.720e-5
0.603, 4.712e-5
0.602, 4.708e-5
0.601, 4.699e-5
0.600, 4.691e-5
0.599, 4.683e-5
0.598, 4.674e-5
0.597, 4.665e-5
0.596, 4.655e-5
0.595, 4.646e-5
0.594, 4.637e-5
0.593, 4.625e-5
0.592, 4.616e-5
0.591, 4.605e-5
0.590, 4.594e-5
0.589, 4.580e-5
0.588, 4.568e-5
0.587, 4.557e-5
0.586, 4.544e-5
0.585, 4.530e-5
0.584, 4.515e-5
0.583, 4.501e-5
0.582, 4.487e-5
0.581, 4.471e-5
0.580, 4.454e-5
0.579, 4.437e-5
0.578, 4.420e-5
0.577, 4.402e-5
0.576, 4.387e-5
0.575, 4.367e-5
0.574, 4.347e-5
0.573, 4.325e-5
0.572, 4.303e-5
0.571, 4.280e-5
0.570, 4.258e-5
0.569, 4.234e-5
0.568, 4.208e-5
0.567, 4.181e-5
0.566, 4.155e-5
0.565, 4.128e-5
0.564, 4.099e-5
0.563, 4.068e-5
0.562, 4.040e-5
0.561, 4.005e-5
0.560, 3.973e-5
0.559, 3.938e-5
0.558, 3.902e-5
0.557, 3.866e-5
0.556, 3.825e-5
0.555, 3.785e-5
0.554, 3.747e-5
0.553, 3.701e-5
0.552, 3.659e-5
0.551, 3.614e-5
0.550, 3.571e-5
0.549, 3.520e-5
0.548, 3.462e-5
0.547, 3.416e-5
0.546, 3.361e-5
0.545, 3.305e-5
0.544, 3.250e-5
0.543, 3.184e-5
0.542, 3.126e-5
0.541, 3.061e-5
0.540, 2.991e-5
0.539, 2.925e-5
0.538, 2.841e-5
0.537, 2.774e-5
0.536, 2.699e-5
0.535, 2.623e-5
0.534, 2.546e-5
0.533, 2.461e-5
0.532, 2.379e-5
0.531, 2.288e-5
0.530, 2.200e-5
0.529, 2.106e-5
0.528, 2.007e-5
0.527, 1.916e-5
0.526, 1.806e-5
0.525, 1.730e-5
0.524, 1.605e-5
0.523, 1.489e-5
0.522, 1.386e-5
0.521, 1.263e-5
0.520, 1.150e-5
0.519, 1.022e-5
0.518, 8.986e-6
0.517, 7.784e-6
0.516, 6.314e-6
0.515, 5.073e-6
0.514, 3.673e-6
0.513, 2.216e-6
0.512, 5.618e-7
0.511, -8.427e-7
0.510, -2.375e-6
0.509, -3.708e-6
0.508, -5.428e-6
0.507, -6.844e-6
0.506, -8.529e-6
0.505, -1.011e-5
0.504, -1.169e-5
0.503, -1.346e-5
0.502, -1.501e-5
0.501, -1.679e-5
0.500, -1.853e-5
0.499, -1.995e-5
0.498, -2.204e-5
0.497, -2.374e-5
0.496, -2.559e-5
0.495, -2.754e-5
0.494, -2.931e-5
0.493, -3.128e-5
0.492, -3.301e-5
0.491, -3.505e-5
0.490, -3.687e-5
0.489, -3.883e-5
0.488, -4.071e-5
0.487, -4.288e-5
0.486, -4.512e-5
0.485, -4.658e-5
0.484, -4.864e-5
0.483, -5.055e-5
0.482, -5.230e-5
0.481, -5.426e-5
0.480, -5.594e-5
0.479, -5.795e-5
0.478, -5.984e-5
0.477, -6.132e-5
0.476, -6.351e-5
0.475, -6.504e-5
0.474, -6.641e-5
0.473, -6.811e-5
0.472, -6.970e-5
0.471, -7.160e-5
0.470, -7.285e-5
0.469, -7.449e-5
0.468, -7.595e-5
0.467, -7.715e-5
0.466, -7.882e-5
0.465, -8.003e-5
0.464, -8.129e-5
0.463, -8.284e-5
0.462, -8.366e-5
0.461, -8.473e-5
0.460, -8.597e-5
0.459, -8.696e-5
0.458, -8.794e-5
0.457, -8.878e-5
0.456, -8.964e-5
0.455, -9.060e-5
0.454, -9.127e-5
0.453, -9.183e-5
0.452, -9.248e-5
0.451, -9.310e-5
0.450, -9.351e-5
0.449, -9.401e-5
0.448, -9.395e-5
0.447, -9.455e-5
0.446, -9.500e-5
0.445, -9.510e-5
0.444, -9.553e-5
0.443, -9.566e-5
0.442, -9.576e-5
0.441, -9.592e-5
0.440, -9.576e-5
0.439, -9.600e-5
0.438, -9.582e-5
0.437, -9.559e-5
0.436, -9.567e-5
0.435, -9.577e-5
0.434, -9.536e-5
0.433, -9.509e-5
0.432, -9.465e-5
0.431, -9.447e-5
0.430, -9.403e-5
0.429, -9.351e-5
0.428, -9.328e-5
0.427, -9.269e-5
0.426, -9.232e-5
0.425, -9.179e-5
0.424, -9.123e-5
0.423, -9.067e-5
0.422, -9.000e-5
0.421, -8.953e-5
0.420, -8.896e-5
0.419, -8.836e-5
0.418, -8.780e-5
0.417, -8.715e-5
0.416, -8.651e-5
0.415, -8.591e-5
0.414, -8.523e-5
0.413, -8.457e-5
0.412, -8.390e-5
0.411, -8.323e-5
0.410, -8.198e-5
0.409, -8.146e-5
0.408, -8.095e-5
0.407, -8.021e-5
0.406, -7.957e-5
0.405, -7.887e-5
0.404, -7.825e-5
0.403, -7.751e-5
0.402, -7.679e-5
0.401, -7.612e-5
0.400, -7.539e-5
0.399, -7.474e-5
0.398, -7.403e-5
0.397, -7.320e-5
0.396, -7.262e-5
0.395, -7.191e-5
0.394, -7.124e-5
0.393, -7.058e-5
0.392, -6.984e-5
0.391, -6.922e-5
0.390, -6.852e-5
0.389, -6.786e-5
0.388, -6.723e-5
0.387, -6.655e-5
0.386, -6.591e-5
0.385, -6.526e-5
0.384, -6.471e-5
0.383, -6.404e-5
0.382, -6.339e-5
0.381, -6.276e-5
0.380, -6.216e-5
0.379, -6.155e-5
0.378, -6.094e-5
0.377, -6.034e-5
0.376, -5.975e-5
0.375, -5.916e-5
0.374, -5.859e-5
0.373, -5.802e-5
0.372, -5.746e-5
0.371, -5.687e-5
0.370, -5.632e-5
0.369, -5.580e-5
0.368, -5.526e-5
0.367, -5.474e-5
0.366, -5.422e-5
0.365, -5.367e-5
0.364, -5.318e-5
0.363, -5.268e-5
0.362, -5.217e-5
0.361, -5.170e-5
0.360, -5.120e-5
0.359, -5.073e-5
0.358, -5.026e-5
0.357, -4.978e-5
0.356, -4.935e-5
0.355, -4.890e-5
0.354, -4.844e-5
0.353, -4.802e-5
0.352, -4.756e-5
0.351, -4.714e-5
0.350, -4.672e-5
0.349, -4.629e-5
0.348, -4.589e-5
0.347, -4.548e-5
0.346, -4.505e-5
0.345, -4.467e-5
0.344, -4.428e-5
0.343, -4.391e-5
0.342, -4.351e-5
0.341, -4.314e-5
0.340, -4.278e-5
0.339, -4.240e-5
0.338, -4.205e-5
0.337, -4.169e-5
0.336, -4.135e-5
0.335, -4.100e-5
0.334, -4.066e-5
0.333, -4.034e-5
0.332, -4.001e-5
0.331, -3.968e-5
0.330, -3.933e-5
0.329, -3.901e-5
0.328, -3.870e-5
0.327, -3.839e-5
0.326, -3.808e-5
0.325, -3.777e-5
0.324, -3.748e-5
0.323, -3.718e-5
0.322, -3.689e-5
0.321, -3.660e-5
0.320, -3.630e-5
0.319, -3.603e-5
0.318, -3.576e-5
0.317, -3.548e-5
0.316, -3.522e-5
0.315, -3.495e-5
0.314, -3.469e-5
0.313, -3.443e-5
0.312, -3.417e-5
0.311, -3.392e-5
0.310, -3.367e-5
0.309, -3.341e-5
0.308, -3.318e-5
0.307, -3.294e-5
0.306, -3.270e-5
0.305, -3.246e-5
0.304, -3.223e-5
0.303, -3.199e-5
0.302, -3.176e-5
0.301, -3.153e-5
0.300, -3.132e-5
0.299, -3.109e-5
0.298, -3.087e-5
0.297, -3.066e-5
0.296, -3.045e-5
0.295, -3.022e-5
0.294, -3.002e-5
0.293, -2.981e-5
0.292, -2.961e-5
0.291, -2.941e-5
0.290, -2.921e-5
0.289, -2.902e-5
0.288, -2.883e-5
0.287, -2.863e-5
0.286, -2.844e-5
0.285, -2.825e-5
0.284, -2.807e-5
0.283, -2.789e-5
0.282, -2.771e-5
0.281, -2.753e-5
0.280, -2.734e-5
0.279, -2.716e-5
0.278, -2.699e-5
0.277, -2.682e-5
0.276, -2.665e-5
0.275, -2.648e-5
0.274, -2.630e-5
0.273, -2.614e-5
0.272, -2.598e-5
0.271, -2.582e-5
0.270, -2.565e-5
0.269, -2.548e-5
0.268, -2.534e-5
0.267, -2.518e-5
0.266, -2.503e-5
0.265, -2.487e-5
0.264, -2.473e-5
0.263, -2.458e-5
0.262, -2.442e-5
0.261, -2.428e-5
0.260, -2.413e-5
0.259, -2.399e-5
0.258, -2.385e-5
0.257, -2.370e-5
0.256, -2.356e-5
0.255, -2.342e-5
0.254, -2.328e-5
0.253, -2.315e-5
0.252, -2.302e-5
0.251, -2.288e-5
0.250, -2.275e-5
0.249, -2.262e-5
0.248, -2.249e-5
0.247, -2.235e-5
0.246, -2.223e-5
0.245, -2.210e-5
0.244, -2.198e-5
0.243, -2.186e-5
0.242, -2.173e-5
0.241, -2.161e-5
0.240, -2.149e-5
0.239, -2.138e-5
0.238, -2.126e-5
0.237, -2.114e-5
0.236, -2.102e-5
0.235, -2.091e-5
0.234, -2.079e-5
0.233, -2.068e-5
0.232, -2.056e-5
0.231, -2.046e-5
0.230, -2.035e-5
0.229, -2.024e-5
0.228, -2.013e-5
0.227, -2.002e-5
0.226, -1.991e-5
0.225, -1.981e-5
0.224, -1.971e-5
0.223, -1.961e-5
0.222, -1.950e-5
0.221, -1.940e-5
0.220, -1.930e-5
0.219, -1.920e-5
0.218, -1.909e-5
0.217, -1.900e-5
0.216, -1.890e-5
0.215, -1.881e-5
0.214, -1.871e-5
0.213, -1.862e-5
0.212, -1.852e-5
0.211, -1.843e-5
0.210, -1.833e-5
0.209, -1.824e-5
0.208, -1.815e-5
0.207, -1.806e-5
0.206, -1.797e-5
0.205, -1.786e-5
0.204, -1.779e-5
0.203, -1.770e-5
0.202, -1.761e-5
0.201, -1.753e-5
0.200, -1.745e-5
0.199, -1.736e-5
0.198, -1.728e-5
0.197, -1.719e-5
0.196, -1.711e-5
0.195, -1.703e-5
0.194, -1.694e-5
0.193, -1.687e-5
0.192, -1.677e-5
0.191, -1.670e-5
0.190, -1.662e-5
0.189, -1.654e-5
0.188, -1.647e-5
0.187, -1.639e-5
0.186, -1.631e-5
0.185, -1.624e-5
0.184, -1.616e-5
0.183, -1.608e-5
0.182, -1.601e-5
0.181, -1.594e-5
0.180, -1.587e-5
0.179, -1.579e-5
0.178, -1.571e-5
0.177, -1.564e-5
0.176, -1.557e-5
0.175, -1.550e-5
0.174, -1.543e-5
0.173, -1.536e-5
0.172, -1.529e-5
0.171, -1.522e-5
0.170, -1.515e-5
0.169, -1.509e-5
0.168, -1.502e-5
0.167, -1.495e-5
0.166, -1.488e-5
0.165, -1.481e-5
0.164, -1.476e-5
0.163, -1.469e-5
0.162, -1.462e-5
0.161, -1.456e-5
0.160, -1.449e-5
0.159, -1.444e-5
0.158, -1.437e-5
0.157, -1.431e-5
0.156, -1.424e-5
0.155, -1.418e-5
0.154, -1.412e-5
0.153, -1.406e-5
0.152, -1.400e-5
0.151, -1.394e-5
0.150, -1.388e-5
0.149, -1.382e-5
0.148, -1.376e-5
0.147, -1.371e-5
0.146, -1.365e-5
0.145, -1.360e-5
0.144, -1.354e-5
0.143, -1.349e-5
0.142, -1.342e-5
0.141, -1.336e-5
0.140, -1.331e-5
0.139, -1.326e-5
0.138, -1.320e-5
0.137, -1.315e-5
0.136, -1.310e-5
0.135, -1.304e-5
0.134, -1.299e-5
0.133, -1.293e-5
0.132, -1.288e-5
0.131, -1.283e-5
0.130, -1.278e-5
0.129, -1.273e-5
0.128, -1.268e-5
0.127, -1.263e-5
0.126, -1.258e-5
0.125, -1.253e-5
0.124, -1.248e-5
0.123, -1.243e-5
0.122, -1.238e-5
0.121, -1.233e-5
0.120, -1.228e-5
0.119, -1.224e-5
0.118, -1.218e-5
0.117, -1.214e-5
0.116, -1.209e-5
0.115, -1.204e-5
0.114, -1.200e-5
0.113, -1.195e-5
0.112, -1.190e-5
0.111, -1.186e-5
0.110, -1.181e-5
0.109, -1.176e-5
0.108, -1.172e-5
0.107, -1.167e-5
0.106, -1.163e-5
0.105, -1.158e-5
0.104, -1.155e-5
0.103, -1.151e-5
0.102, -1.145e-5
0.101, -1.141e-5
0.100, -1.137e-5
0.099, -1.133e-5
0.098, -1.129e-5
0.097, -1.124e-5
0.096, -1.120e-5
0.095, -1.117e-5
0.094, -1.112e-5
0.093, -1.108e-5
0.092, -1.104e-5
0.091, -1.100e-5
0.090, -1.095e-5
0.089, -1.092e-5
0.088, -1.088e-5
0.087, -1.084e-5
0.086, -1.080e-5
0.085, -1.075e-5
0.084, -1.072e-5
0.083, -1.068e-5
0.082, -1.064e-5
0.081, -1.060e-5
0.080, -1.057e-5
0.079, -1.053e-5
0.078, -1.049e-5
0.077, -1.046e-5
0.076, -1.042e-5
0.075, -1.038e-5
0.074, -1.035e-5
0.073, -1.031e-5
0.072, -1.027e-5
0.071, -1.024e-5
0.070, -1.020e-5
0.069, -1.017e-5
0.068, -1.014e-5
0.067, -1.010e-5
0.066, -1.006e-5
0.065, -1.003e-5
0.064, -9.989e-6
0.063, -9.959e-6
0.062, -9.922e-6
0.061, -9.891e-6
0.060, -9.861e-6
0.059, -9.831e-6
0.058, -9.793e-6
0.057, -9.762e-6
0.056, -9.735e-6
0.055, -9.702e-6
0.054, -9.670e-6
0.053, -9.634e-6
0.052, -9.603e-6
0.051, -9.576e-6
0.050, -9.541e-6
0.049, -9.510e-6
0.048, -9.480e-6
0.047, -9.449e-6
0.046, -9.419e-6
0.045, -9.385e-6
0.044, -9.361e-6
0.043, -9.330e-6
0.042, -9.294e-6
0.041, -9.271e-6
0.040, -9.243e-6
0.039, -9.209e-6
0.038, -9.176e-6
0.037, -9.150e-6
0.036, -9.128e-6
0.035, -9.099e-6
0.034, -9.067e-6
0.033, -9.043e-6
0.032, -9.013e-6
0.031, -8.982e-6
0.030, -8.954e-6
0.029, -8.925e-6
0.028, -8.900e-6
0.027, -8.874e-6
0.026, -8.855e-6
0.025, -8.819e-6
0.024, -8.793e-6
0.023, -8.766e-6
0.022, -8.741e-6
0.021, -8.715e-6
0.020, -8.687e-6
0.019, -8.660e-6
0.018, -8.636e-6
0.017, -8.613e-6
0.016, -8.591e-6
0.015, -8.559e-6
0.014, -8.534e-6
0.013, -8.504e-6
0.012, -8.482e-6
0.011, -8.460e-6
0.010, -8.431e-6
0.009, -8.410e-6
0.008, -8.389e-6
0.007, -8.361e-6
0.006, -8.339e-6
0.005, -8.313e-6
0.004, -8.294e-6
0.003, -8.271e-6
0.002, -8.243e-6
0.001, -8.225e-6
