May 7, 2026   14:48:34
Cyclic Voltammetry
File: mecn_ar_0.1mtbapf6_3mmfc_1mmfe-tpypy2me_-1.7_to_1v_1vs
Data Source:  Experiment
Instrument Model:  CHI660D
Header: 
Note: 

Init E (V) = 0
High E (V) = 1
Low E (V) = -1.7
Final E (V) = 0
Init P/N = N
Scan Rate (V/s) = 1
Segment = 3
Sample Interval (V) = 0.001
Quiet Time (sec) = 2
Sensitivity (A/V) = 1e-4
Comp R (ohm) = 131.5

Results:

Channel 1:
Segment 1:
Ep = -1.023V
ip = -1.003e-4A
Ah = -1.074e-5C

Segment 2:
Ep = -0.896V
ip = 8.493e-5A
Ah = 9.797e-6C

Ep = 0.491V
ip = 3.741e-4A
Ah = 2.316e-5C

Segment 3:
Ep = 0.440V
ip = -3.651e-4A
Ah = -2.251e-5C

Potential/V, Current/A

0.000, -4.415e-6
-0.001, -5.602e-6
-0.002, -6.029e-6
-0.003, -6.272e-6
-0.004, -6.546e-6
-0.005, -6.668e-6
-0.006, -6.820e-6
-0.007, -7.003e-6
-0.008, -7.094e-6
-0.009, -7.216e-6
-0.010, -7.369e-6
-0.011, -7.429e-6
-0.012, -7.551e-6
-0.013, -7.521e-6
-0.014, -7.673e-6
-0.015, -7.825e-6
-0.016, -7.764e-6
-0.017, -7.917e-6
-0.018, -7.978e-6
-0.019, -8.069e-6
-0.020, -8.160e-6
-0.021, -8.221e-6
-0.022, -8.282e-6
-0.023, -8.404e-6
-0.024, -8.373e-6
-0.025, -8.526e-6
-0.026, -8.556e-6
-0.027, -8.587e-6
-0.028, -8.678e-6
-0.029, -8.678e-6
-0.030, -8.769e-6
-0.031, -8.891e-6
-0.032, -8.769e-6
-0.033, -8.952e-6
-0.034, -9.013e-6
-0.035, -9.013e-6
-0.036, -9.135e-6
-0.037, -9.104e-6
-0.038, -9.074e-6
-0.039, -9.287e-6
-0.040, -9.287e-6
-0.041, -9.318e-6
-0.042, -9.378e-6
-0.043, -9.470e-6
-0.044, -9.439e-6
-0.045, -9.561e-6
-0.046, -9.561e-6
-0.047, -9.713e-6
-0.048, -9.713e-6
-0.049, -9.713e-6
-0.050, -9.774e-6
-0.051, -9.774e-6
-0.052, -9.866e-6
-0.053, -9.866e-6
-0.054, -1.002e-5
-0.055, -1.002e-5
-0.056, -1.008e-5
-0.057, -1.011e-5
-0.058, -1.020e-5
-0.059, -1.020e-5
-0.060, -1.026e-5
-0.061, -1.020e-5
-0.062, -1.038e-5
-0.063, -1.038e-5
-0.064, -1.032e-5
-0.065, -1.047e-5
-0.066, -1.054e-5
-0.067, -1.060e-5
-0.068, -1.063e-5
-0.069, -1.060e-5
-0.070, -1.069e-5
-0.071, -1.075e-5
-0.072, -1.084e-5
-0.073, -1.087e-5
-0.074, -1.093e-5
-0.075, -1.096e-5
-0.076, -1.102e-5
-0.077, -1.108e-5
-0.078, -1.114e-5
-0.079, -1.118e-5
-0.080, -1.127e-5
-0.081, -1.124e-5
-0.082, -1.136e-5
-0.083, -1.133e-5
-0.084, -1.142e-5
-0.085, -1.139e-5
-0.086, -1.145e-5
-0.087, -1.148e-5
-0.088, -1.157e-5
-0.089, -1.157e-5
-0.090, -1.160e-5
-0.091, -1.172e-5
-0.092, -1.178e-5
-0.093, -1.175e-5
-0.094, -1.188e-5
-0.095, -1.188e-5
-0.096, -1.194e-5
-0.097, -1.197e-5
-0.098, -1.206e-5
-0.099, -1.212e-5
-0.100, -1.227e-5
-0.101, -1.212e-5
-0.102, -1.233e-5
-0.103, -1.230e-5
-0.104, -1.233e-5
-0.105, -1.242e-5
-0.106, -1.239e-5
-0.107, -1.248e-5
-0.108, -1.255e-5
-0.109, -1.258e-5
-0.110, -1.261e-5
-0.111, -1.267e-5
-0.112, -1.273e-5
-0.113, -1.279e-5
-0.114, -1.279e-5
-0.115, -1.276e-5
-0.116, -1.294e-5
-0.117, -1.297e-5
-0.118, -1.300e-5
-0.119, -1.306e-5
-0.120, -1.306e-5
-0.121, -1.312e-5
-0.122, -1.312e-5
-0.123, -1.328e-5
-0.124, -1.328e-5
-0.125, -1.334e-5
-0.126, -1.340e-5
-0.127, -1.340e-5
-0.128, -1.364e-5
-0.129, -1.355e-5
-0.130, -1.361e-5
-0.131, -1.367e-5
-0.132, -1.370e-5
-0.133, -1.376e-5
-0.134, -1.379e-5
-0.135, -1.386e-5
-0.136, -1.392e-5
-0.137, -1.395e-5
-0.138, -1.398e-5
-0.139, -1.407e-5
-0.140, -1.410e-5
-0.141, -1.410e-5
-0.142, -1.422e-5
-0.143, -1.425e-5
-0.144, -1.431e-5
-0.145, -1.437e-5
-0.146, -1.431e-5
-0.147, -1.440e-5
-0.148, -1.446e-5
-0.149, -1.456e-5
-0.150, -1.453e-5
-0.151, -1.462e-5
-0.152, -1.474e-5
-0.153, -1.474e-5
-0.154, -1.477e-5
-0.155, -1.483e-5
-0.156, -1.486e-5
-0.157, -1.495e-5
-0.158, -1.492e-5
-0.159, -1.498e-5
-0.160, -1.507e-5
-0.161, -1.510e-5
-0.162, -1.513e-5
-0.163, -1.526e-5
-0.164, -1.523e-5
-0.165, -1.532e-5
-0.166, -1.523e-5
-0.167, -1.535e-5
-0.168, -1.544e-5
-0.169, -1.556e-5
-0.170, -1.553e-5
-0.171, -1.562e-5
-0.172, -1.562e-5
-0.173, -1.577e-5
-0.174, -1.574e-5
-0.175, -1.574e-5
-0.176, -1.583e-5
-0.177, -1.590e-5
-0.178, -1.596e-5
-0.179, -1.614e-5
-0.180, -1.605e-5
-0.181, -1.614e-5
-0.182, -1.608e-5
-0.183, -1.611e-5
-0.184, -1.623e-5
-0.185, -1.635e-5
-0.186, -1.632e-5
-0.187, -1.635e-5
-0.188, -1.635e-5
-0.189, -1.647e-5
-0.190, -1.654e-5
-0.191, -1.644e-5
-0.192, -1.641e-5
-0.193, -1.666e-5
-0.194, -1.672e-5
-0.195, -1.675e-5
-0.196, -1.675e-5
-0.197, -1.684e-5
-0.198, -1.678e-5
-0.199, -1.690e-5
-0.200, -1.693e-5
-0.201, -1.699e-5
-0.202, -1.708e-5
-0.203, -1.705e-5
-0.204, -1.717e-5
-0.205, -1.702e-5
-0.206, -1.721e-5
-0.207, -1.717e-5
-0.208, -1.727e-5
-0.209, -1.724e-5
-0.210, -1.742e-5
-0.211, -1.739e-5
-0.212, -1.742e-5
-0.213, -1.748e-5
-0.214, -1.757e-5
-0.215, -1.748e-5
-0.216, -1.766e-5
-0.217, -1.754e-5
-0.218, -1.775e-5
-0.219, -1.772e-5
-0.220, -1.775e-5
-0.221, -1.784e-5
-0.222, -1.787e-5
-0.223, -1.787e-5
-0.224, -1.787e-5
-0.225, -1.794e-5
-0.226, -1.803e-5
-0.227, -1.803e-5
-0.228, -1.803e-5
-0.229, -1.818e-5
-0.230, -1.836e-5
-0.231, -1.827e-5
-0.232, -1.827e-5
-0.233, -1.827e-5
-0.234, -1.836e-5
-0.235, -1.836e-5
-0.236, -1.839e-5
-0.237, -1.848e-5
-0.238, -1.854e-5
-0.239, -1.851e-5
-0.240, -1.858e-5
-0.241, -1.854e-5
-0.242, -1.873e-5
-0.243, -1.845e-5
-0.244, -1.858e-5
-0.245, -1.879e-5
-0.246, -1.879e-5
-0.247, -1.888e-5
-0.248, -1.879e-5
-0.249, -1.885e-5
-0.250, -1.903e-5
-0.251, -1.891e-5
-0.252, -1.891e-5
-0.253, -1.903e-5
-0.254, -1.906e-5
-0.255, -1.915e-5
-0.256, -1.906e-5
-0.257, -1.909e-5
-0.258, -1.921e-5
-0.259, -1.918e-5
-0.260, -1.921e-5
-0.261, -1.934e-5
-0.262, -1.931e-5
-0.263, -1.934e-5
-0.264, -1.937e-5
-0.265, -1.943e-5
-0.266, -1.949e-5
-0.267, -1.952e-5
-0.268, -1.946e-5
-0.269, -1.955e-5
-0.270, -1.958e-5
-0.271, -1.967e-5
-0.272, -1.973e-5
-0.273, -1.964e-5
-0.274, -1.976e-5
-0.275, -1.970e-5
-0.276, -1.979e-5
-0.277, -1.982e-5
-0.278, -1.979e-5
-0.279, -1.992e-5
-0.280, -1.988e-5
-0.281, -2.007e-5
-0.282, -2.004e-5
-0.283, -2.013e-5
-0.284, -2.001e-5
-0.285, -2.013e-5
-0.286, -2.013e-5
-0.287, -2.025e-5
-0.288, -2.016e-5
-0.289, -2.022e-5
-0.290, -2.028e-5
-0.291, -2.031e-5
-0.292, -2.025e-5
-0.293, -2.040e-5
-0.294, -2.016e-5
-0.295, -2.037e-5
-0.296, -2.040e-5
-0.297, -2.037e-5
-0.298, -2.052e-5
-0.299, -2.055e-5
-0.300, -2.059e-5
-0.301, -2.062e-5
-0.302, -2.055e-5
-0.303, -2.068e-5
-0.304, -2.065e-5
-0.305, -2.059e-5
-0.306, -2.074e-5
-0.307, -2.098e-5
-0.308, -2.077e-5
-0.309, -2.092e-5
-0.310, -2.080e-5
-0.311, -2.095e-5
-0.312, -2.080e-5
-0.313, -2.086e-5
-0.314, -2.098e-5
-0.315, -2.098e-5
-0.316, -2.107e-5
-0.317, -2.110e-5
-0.318, -2.098e-5
-0.319, -2.110e-5
-0.320, -2.095e-5
-0.321, -2.104e-5
-0.322, -2.129e-5
-0.323, -2.119e-5
-0.324, -2.126e-5
-0.325, -2.135e-5
-0.326, -2.122e-5
-0.327, -2.132e-5
-0.328, -2.132e-5
-0.329, -2.135e-5
-0.330, -2.141e-5
-0.331, -2.138e-5
-0.332, -2.153e-5
-0.333, -2.156e-5
-0.334, -2.153e-5
-0.335, -2.159e-5
-0.336, -2.156e-5
-0.337, -2.156e-5
-0.338, -2.162e-5
-0.339, -2.156e-5
-0.340, -2.165e-5
-0.341, -2.174e-5
-0.342, -2.168e-5
-0.343, -2.180e-5
-0.344, -2.177e-5
-0.345, -2.168e-5
-0.346, -2.186e-5
-0.347, -2.180e-5
-0.348, -2.189e-5
-0.349, -2.196e-5
-0.350, -2.186e-5
-0.351, -2.196e-5
-0.352, -2.196e-5
-0.353, -2.199e-5
-0.354, -2.202e-5
-0.355, -2.205e-5
-0.356, -2.214e-5
-0.357, -2.205e-5
-0.358, -2.199e-5
-0.359, -2.214e-5
-0.360, -2.223e-5
-0.361, -2.211e-5
-0.362, -2.226e-5
-0.363, -2.214e-5
-0.364, -2.229e-5
-0.365, -2.226e-5
-0.366, -2.214e-5
-0.367, -2.235e-5
-0.368, -2.235e-5
-0.369, -2.235e-5
-0.370, -2.235e-5
-0.371, -2.223e-5
-0.372, -2.241e-5
-0.373, -2.235e-5
-0.374, -2.235e-5
-0.375, -2.250e-5
-0.376, -2.263e-5
-0.377, -2.250e-5
-0.378, -2.256e-5
-0.379, -2.238e-5
-0.380, -2.260e-5
-0.381, -2.266e-5
-0.382, -2.247e-5
-0.383, -2.269e-5
-0.384, -2.293e-5
-0.385, -2.275e-5
-0.386, -2.275e-5
-0.387, -2.260e-5
-0.388, -2.284e-5
-0.389, -2.281e-5
-0.390, -2.260e-5
-0.391, -2.284e-5
-0.392, -2.281e-5
-0.393, -2.293e-5
-0.394, -2.290e-5
-0.395, -2.287e-5
-0.396, -2.287e-5
-0.397, -2.284e-5
-0.398, -2.278e-5
-0.399, -2.296e-5
-0.400, -2.290e-5
-0.401, -2.299e-5
-0.402, -2.305e-5
-0.403, -2.290e-5
-0.404, -2.305e-5
-0.405, -2.314e-5
-0.406, -2.296e-5
-0.407, -2.308e-5
-0.408, -2.305e-5
-0.409, -2.281e-5
-0.410, -2.302e-5
-0.411, -2.302e-5
-0.412, -2.308e-5
-0.413, -2.314e-5
-0.414, -2.299e-5
-0.415, -2.323e-5
-0.416, -2.305e-5
-0.417, -2.314e-5
-0.418, -2.320e-5
-0.419, -2.314e-5
-0.420, -2.323e-5
-0.421, -2.323e-5
-0.422, -2.293e-5
-0.423, -2.327e-5
-0.424, -2.311e-5
-0.425, -2.323e-5
-0.426, -2.333e-5
-0.427, -2.323e-5
-0.428, -2.333e-5
-0.429, -2.336e-5
-0.430, -2.323e-5
-0.431, -2.333e-5
-0.432, -2.330e-5
-0.433, -2.345e-5
-0.434, -2.336e-5
-0.435, -2.342e-5
-0.436, -2.345e-5
-0.437, -2.339e-5
-0.438, -2.339e-5
-0.439, -2.351e-5
-0.440, -2.336e-5
-0.441, -2.342e-5
-0.442, -2.339e-5
-0.443, -2.336e-5
-0.444, -2.351e-5
-0.445, -2.360e-5
-0.446, -2.342e-5
-0.447, -2.351e-5
-0.448, -2.327e-5
-0.449, -2.345e-5
-0.450, -2.351e-5
-0.451, -2.336e-5
-0.452, -2.351e-5
-0.453, -2.354e-5
-0.454, -2.345e-5
-0.455, -2.354e-5
-0.456, -2.345e-5
-0.457, -2.354e-5
-0.458, -2.348e-5
-0.459, -2.342e-5
-0.460, -2.351e-5
-0.461, -2.357e-5
-0.462, -2.345e-5
-0.463, -2.357e-5
-0.464, -2.345e-5
-0.465, -2.360e-5
-0.466, -2.360e-5
-0.467, -2.336e-5
-0.468, -2.357e-5
-0.469, -2.357e-5
-0.470, -2.360e-5
-0.471, -2.357e-5
-0.472, -2.357e-5
-0.473, -2.348e-5
-0.474, -2.366e-5
-0.475, -2.348e-5
-0.476, -2.357e-5
-0.477, -2.348e-5
-0.478, -2.363e-5
-0.479, -2.360e-5
-0.480, -2.357e-5
-0.481, -2.357e-5
-0.482, -2.369e-5
-0.483, -2.345e-5
-0.484, -2.360e-5
-0.485, -2.360e-5
-0.486, -2.372e-5
-0.487, -2.360e-5
-0.488, -2.360e-5
-0.489, -2.357e-5
-0.490, -2.375e-5
-0.491, -2.357e-5
-0.492, -2.360e-5
-0.493, -2.357e-5
-0.494, -2.366e-5
-0.495, -2.366e-5
-0.496, -2.348e-5
-0.497, -2.360e-5
-0.498, -2.381e-5
-0.499, -2.336e-5
-0.500, -2.357e-5
-0.501, -2.357e-5
-0.502, -2.363e-5
-0.503, -2.363e-5
-0.504, -2.342e-5
-0.505, -2.366e-5
-0.506, -2.372e-5
-0.507, -2.357e-5
-0.508, -2.360e-5
-0.509, -2.351e-5
-0.510, -2.357e-5
-0.511, -2.363e-5
-0.512, -2.366e-5
-0.513, -2.363e-5
-0.514, -2.378e-5
-0.515, -2.357e-5
-0.516, -2.366e-5
-0.517, -2.354e-5
-0.518, -2.363e-5
-0.519, -2.372e-5
-0.520, -2.345e-5
-0.521, -2.363e-5
-0.522, -2.366e-5
-0.523, -2.363e-5
-0.524, -2.369e-5
-0.525, -2.351e-5
-0.526, -2.363e-5
-0.527, -2.360e-5
-0.528, -2.351e-5
-0.529, -2.360e-5
-0.530, -2.369e-5
-0.531, -2.360e-5
-0.532, -2.366e-5
-0.533, -2.363e-5
-0.534, -2.363e-5
-0.535, -2.366e-5
-0.536, -2.351e-5
-0.537, -2.375e-5
-0.538, -2.366e-5
-0.539, -2.366e-5
-0.540, -2.369e-5
-0.541, -2.363e-5
-0.542, -2.351e-5
-0.543, -2.372e-5
-0.544, -2.351e-5
-0.545, -2.363e-5
-0.546, -2.369e-5
-0.547, -2.363e-5
-0.548, -2.357e-5
-0.549, -2.357e-5
-0.550, -2.345e-5
-0.551, -2.375e-5
-0.552, -2.354e-5
-0.553, -2.366e-5
-0.554, -2.366e-5
-0.555, -2.366e-5
-0.556, -2.360e-5
-0.557, -2.357e-5
-0.558, -2.357e-5
-0.559, -2.369e-5
-0.560, -2.357e-5
-0.561, -2.357e-5
-0.562, -2.366e-5
-0.563, -2.348e-5
-0.564, -2.360e-5
-0.565, -2.357e-5
-0.566, -2.360e-5
-0.567, -2.372e-5
-0.568, -2.351e-5
-0.569, -2.357e-5
-0.570, -2.366e-5
-0.571, -2.357e-5
-0.572, -2.363e-5
-0.573, -2.357e-5
-0.574, -2.366e-5
-0.575, -2.363e-5
-0.576, -2.339e-5
-0.577, -2.357e-5
-0.578, -2.366e-5
-0.579, -2.354e-5
-0.580, -2.360e-5
-0.581, -2.345e-5
-0.582, -2.360e-5
-0.583, -2.375e-5
-0.584, -2.360e-5
-0.585, -2.360e-5
-0.586, -2.357e-5
-0.587, -2.363e-5
-0.588, -2.366e-5
-0.589, -2.366e-5
-0.590, -2.360e-5
-0.591, -2.360e-5
-0.592, -2.366e-5
-0.593, -2.363e-5
-0.594, -2.363e-5
-0.595, -2.366e-5
-0.596, -2.366e-5
-0.597, -2.348e-5
-0.598, -2.357e-5
-0.599, -2.363e-5
-0.600, -2.363e-5
-0.601, -2.357e-5
-0.602, -2.366e-5
-0.603, -2.360e-5
-0.604, -2.366e-5
-0.605, -2.351e-5
-0.606, -2.366e-5
-0.607, -2.366e-5
-0.608, -2.357e-5
-0.609, -2.369e-5
-0.610, -2.363e-5
-0.611, -2.363e-5
-0.612, -2.357e-5
-0.613, -2.369e-5
-0.614, -2.320e-5
-0.615, -2.357e-5
-0.616, -2.357e-5
-0.617, -2.363e-5
-0.618, -2.360e-5
-0.619, -2.366e-5
-0.620, -2.366e-5
-0.621, -2.357e-5
-0.622, -2.366e-5
-0.623, -2.357e-5
-0.624, -2.369e-5
-0.625, -2.366e-5
-0.626, -2.354e-5
-0.627, -2.342e-5
-0.628, -2.375e-5
-0.629, -2.366e-5
-0.630, -2.369e-5
-0.631, -2.357e-5
-0.632, -2.363e-5
-0.633, -2.357e-5
-0.634, -2.357e-5
-0.635, -2.360e-5
-0.636, -2.372e-5
-0.637, -2.366e-5
-0.638, -2.366e-5
-0.639, -2.363e-5
-0.640, -2.387e-5
-0.641, -2.372e-5
-0.642, -2.372e-5
-0.643, -2.369e-5
-0.644, -2.375e-5
-0.645, -2.372e-5
-0.646, -2.366e-5
-0.647, -2.366e-5
-0.648, -2.369e-5
-0.649, -2.366e-5
-0.650, -2.360e-5
-0.651, -2.372e-5
-0.652, -2.384e-5
-0.653, -2.363e-5
-0.654, -2.369e-5
-0.655, -2.366e-5
-0.656, -2.375e-5
-0.657, -2.375e-5
-0.658, -2.363e-5
-0.659, -2.372e-5
-0.660, -2.378e-5
-0.661, -2.381e-5
-0.662, -2.375e-5
-0.663, -2.369e-5
-0.664, -2.366e-5
-0.665, -2.372e-5
-0.666, -2.369e-5
-0.667, -2.375e-5
-0.668, -2.387e-5
-0.669, -2.381e-5
-0.670, -2.375e-5
-0.671, -2.387e-5
-0.672, -2.372e-5
-0.673, -2.378e-5
-0.674, -2.372e-5
-0.675, -2.372e-5
-0.676, -2.387e-5
-0.677, -2.387e-5
-0.678, -2.363e-5
-0.679, -2.384e-5
-0.680, -2.381e-5
-0.681, -2.387e-5
-0.682, -2.381e-5
-0.683, -2.387e-5
-0.684, -2.381e-5
-0.685, -2.397e-5
-0.686, -2.387e-5
-0.687, -2.390e-5
-0.688, -2.397e-5
-0.689, -2.406e-5
-0.690, -2.384e-5
-0.691, -2.412e-5
-0.692, -2.397e-5
-0.693, -2.400e-5
-0.694, -2.384e-5
-0.695, -2.397e-5
-0.696, -2.400e-5
-0.697, -2.397e-5
-0.698, -2.397e-5
-0.699, -2.415e-5
-0.700, -2.394e-5
-0.701, -2.409e-5
-0.702, -2.406e-5
-0.703, -2.406e-5
-0.704, -2.390e-5
-0.705, -2.415e-5
-0.706, -2.412e-5
-0.707, -2.394e-5
-0.708, -2.403e-5
-0.709, -2.424e-5
-0.710, -2.406e-5
-0.711, -2.403e-5
-0.712, -2.418e-5
-0.713, -2.424e-5
-0.714, -2.421e-5
-0.715, -2.421e-5
-0.716, -2.415e-5
-0.717, -2.430e-5
-0.718, -2.418e-5
-0.719, -2.418e-5
-0.720, -2.430e-5
-0.721, -2.433e-5
-0.722, -2.439e-5
-0.723, -2.436e-5
-0.724, -2.433e-5
-0.725, -2.448e-5
-0.726, -2.433e-5
-0.727, -2.430e-5
-0.728, -2.448e-5
-0.729, -2.430e-5
-0.730, -2.454e-5
-0.731, -2.448e-5
-0.732, -2.442e-5
-0.733, -2.448e-5
-0.734, -2.448e-5
-0.735, -2.448e-5
-0.736, -2.454e-5
-0.737, -2.467e-5
-0.738, -2.464e-5
-0.739, -2.470e-5
-0.740, -2.479e-5
-0.741, -2.467e-5
-0.742, -2.482e-5
-0.743, -2.470e-5
-0.744, -2.488e-5
-0.745, -2.473e-5
-0.746, -2.485e-5
-0.747, -2.488e-5
-0.748, -2.485e-5
-0.749, -2.494e-5
-0.750, -2.500e-5
-0.751, -2.494e-5
-0.752, -2.506e-5
-0.753, -2.500e-5
-0.754, -2.521e-5
-0.755, -2.494e-5
-0.756, -2.503e-5
-0.757, -2.515e-5
-0.758, -2.524e-5
-0.759, -2.524e-5
-0.760, -2.524e-5
-0.761, -2.531e-5
-0.762, -2.543e-5
-0.763, -2.537e-5
-0.764, -2.546e-5
-0.765, -2.540e-5
-0.766, -2.564e-5
-0.767, -2.558e-5
-0.768, -2.555e-5
-0.769, -2.567e-5
-0.770, -2.576e-5
-0.771, -2.570e-5
-0.772, -2.585e-5
-0.773, -2.585e-5
-0.774, -2.604e-5
-0.775, -2.604e-5
-0.776, -2.607e-5
-0.777, -2.613e-5
-0.778, -2.631e-5
-0.779, -2.616e-5
-0.780, -2.622e-5
-0.781, -2.628e-5
-0.782, -2.643e-5
-0.783, -2.658e-5
-0.784, -2.665e-5
-0.785, -2.658e-5
-0.786, -2.677e-5
-0.787, -2.662e-5
-0.788, -2.686e-5
-0.789, -2.689e-5
-0.790, -2.710e-5
-0.791, -2.716e-5
-0.792, -2.719e-5
-0.793, -2.741e-5
-0.794, -2.744e-5
-0.795, -2.753e-5
-0.796, -2.747e-5
-0.797, -2.777e-5
-0.798, -2.786e-5
-0.799, -2.805e-5
-0.800, -2.805e-5
-0.801, -2.811e-5
-0.802, -2.838e-5
-0.803, -2.829e-5
-0.804, -2.844e-5
-0.805, -2.869e-5
-0.806, -2.856e-5
-0.807, -2.896e-5
-0.808, -2.890e-5
-0.809, -2.930e-5
-0.810, -2.939e-5
-0.811, -2.954e-5
-0.812, -2.951e-5
-0.813, -2.975e-5
-0.814, -3.000e-5
-0.815, -3.015e-5
-0.816, -3.030e-5
-0.817, -3.039e-5
-0.818, -3.067e-5
-0.819, -3.045e-5
-0.820, -3.085e-5
-0.821, -3.121e-5
-0.822, -3.140e-5
-0.823, -3.182e-5
-0.824, -3.179e-5
-0.825, -3.197e-5
-0.826, -3.246e-5
-0.827, -3.246e-5
-0.828, -3.274e-5
-0.829, -3.313e-5
-0.830, -3.325e-5
-0.831, -3.365e-5
-0.832, -3.362e-5
-0.833, -3.408e-5
-0.834, -3.444e-5
-0.835, -3.475e-5
-0.836, -3.487e-5
-0.837, -3.536e-5
-0.838, -3.551e-5
-0.839, -3.606e-5
-0.840, -3.615e-5
-0.841, -3.663e-5
-0.842, -3.697e-5
-0.843, -3.721e-5
-0.844, -3.773e-5
-0.845, -3.825e-5
-0.846, -3.843e-5
-0.847, -3.907e-5
-0.848, -3.913e-5
-0.849, -3.953e-5
-0.850, -4.026e-5
-0.851, -4.056e-5
-0.852, -4.108e-5
-0.853, -4.145e-5
-0.854, -4.187e-5
-0.855, -4.239e-5
-0.856, -4.285e-5
-0.857, -4.324e-5
-0.858, -4.382e-5
-0.859, -4.437e-5
-0.860, -4.489e-5
-0.861, -4.541e-5
-0.862, -4.583e-5
-0.863, -4.662e-5
-0.864, -4.696e-5
-0.865, -4.745e-5
-0.866, -4.830e-5
-0.867, -4.888e-5
-0.868, -4.955e-5
-0.869, -5.019e-5
-0.870, -5.058e-5
-0.871, -5.131e-5
-0.872, -5.195e-5
-0.873, -5.259e-5
-0.874, -5.338e-5
-0.875, -5.411e-5
-0.876, -5.475e-5
-0.877, -5.545e-5
-0.878, -5.609e-5
-0.879, -5.692e-5
-0.880, -5.753e-5
-0.881, -5.804e-5
-0.882, -5.911e-5
-0.883, -5.938e-5
-0.884, -6.066e-5
-0.885, -6.130e-5
-0.886, -6.197e-5
-0.887, -6.273e-5
-0.888, -6.368e-5
-0.889, -6.435e-5
-0.890, -6.532e-5
-0.891, -6.596e-5
-0.892, -6.691e-5
-0.893, -6.754e-5
-0.894, -6.834e-5
-0.895, -6.937e-5
-0.896, -7.059e-5
-0.897, -7.093e-5
-0.898, -7.199e-5
-0.899, -7.266e-5
-0.900, -7.354e-5
-0.901, -7.427e-5
-0.902, -7.498e-5
-0.903, -7.583e-5
-0.904, -7.668e-5
-0.905, -7.729e-5
-0.906, -7.839e-5
-0.907, -7.896e-5
-0.908, -7.994e-5
-0.909, -8.027e-5
-0.910, -8.116e-5
-0.911, -8.228e-5
-0.912, -8.298e-5
-0.913, -8.356e-5
-0.914, -8.454e-5
-0.915, -8.515e-5
-0.916, -8.618e-5
-0.917, -8.664e-5
-0.918, -8.719e-5
-0.919, -8.825e-5
-0.920, -8.874e-5
-0.921, -8.941e-5
-0.922, -9.075e-5
-0.923, -9.102e-5
-0.924, -9.179e-5
-0.925, -9.239e-5
-0.926, -9.285e-5
-0.927, -9.370e-5
-0.928, -9.434e-5
-0.929, -9.480e-5
-0.930, -9.556e-5
-0.931, -9.608e-5
-0.932, -9.708e-5
-0.933, -9.739e-5
-0.934, -9.754e-5
-0.935, -9.888e-5
-0.936, -9.909e-5
-0.937, -9.961e-5
-0.938, -1.006e-4
-0.939, -1.007e-4
-0.940, -1.019e-4
-0.941, -1.019e-4
-0.942, -1.025e-4
-0.943, -1.036e-4
-0.944, -1.040e-4
-0.945, -1.046e-4
-0.946, -1.049e-4
-0.947, -1.059e-4
-0.948, -1.066e-4
-0.949, -1.071e-4
-0.950, -1.071e-4
-0.951, -1.080e-4
-0.952, -1.089e-4
-0.953, -1.095e-4
-0.954, -1.096e-4
-0.955, -1.103e-4
-0.956, -1.111e-4
-0.957, -1.115e-4
-0.958, -1.120e-4
-0.959, -1.126e-4
-0.960, -1.126e-4
-0.961, -1.136e-4
-0.962, -1.147e-4
-0.963, -1.145e-4
-0.964, -1.160e-4
-0.965, -1.164e-4
-0.966, -1.164e-4
-0.967, -1.177e-4
-0.968, -1.180e-4
-0.969, -1.187e-4
-0.970, -1.194e-4
-0.971, -1.198e-4
-0.972, -1.207e-4
-0.973, -1.212e-4
-0.974, -1.215e-4
-0.975, -1.226e-4
-0.976, -1.229e-4
-0.977, -1.236e-4
-0.978, -1.243e-4
-0.979, -1.247e-4
-0.980, -1.256e-4
-0.981, -1.258e-4
-0.982, -1.265e-4
-0.983, -1.275e-4
-0.984, -1.278e-4
-0.985, -1.286e-4
-0.986, -1.287e-4
-0.987, -1.292e-4
-0.988, -1.305e-4
-0.989, -1.308e-4
-0.990, -1.312e-4
-0.991, -1.319e-4
-0.992, -1.322e-4
-0.993, -1.328e-4
-0.994, -1.335e-4
-0.995, -1.334e-4
-0.996, -1.345e-4
-0.997, -1.348e-4
-0.998, -1.354e-4
-0.999, -1.355e-4
-1.000, -1.359e-4
-1.001, -1.369e-4
-1.002, -1.368e-4
-1.003, -1.370e-4
-1.004, -1.378e-4
-1.005, -1.378e-4
-1.006, -1.383e-4
-1.007, -1.387e-4
-1.008, -1.383e-4
-1.009, -1.395e-4
-1.010, -1.397e-4
-1.011, -1.386e-4
-1.012, -1.401e-4
-1.013, -1.398e-4
-1.014, -1.397e-4
-1.015, -1.403e-4
-1.016, -1.402e-4
-1.017, -1.406e-4
-1.018, -1.405e-4
-1.019, -1.403e-4
-1.020, -1.408e-4
-1.021, -1.407e-4
-1.022, -1.404e-4
-1.023, -1.409e-4
-1.024, -1.393e-4
-1.025, -1.406e-4
-1.026, -1.408e-4
-1.027, -1.401e-4
-1.028, -1.408e-4
-1.029, -1.405e-4
-1.030, -1.403e-4
-1.031, -1.404e-4
-1.032, -1.400e-4
-1.033, -1.400e-4
-1.034, -1.401e-4
-1.035, -1.395e-4
-1.036, -1.396e-4
-1.037, -1.390e-4
-1.038, -1.391e-4
-1.039, -1.392e-4
-1.040, -1.386e-4
-1.041, -1.387e-4
-1.042, -1.384e-4
-1.043, -1.380e-4
-1.044, -1.378e-4
-1.045, -1.376e-4
-1.046, -1.375e-4
-1.047, -1.373e-4
-1.048, -1.368e-4
-1.049, -1.369e-4
-1.050, -1.367e-4
-1.051, -1.359e-4
-1.052, -1.359e-4
-1.053, -1.356e-4
-1.054, -1.354e-4
-1.055, -1.350e-4
-1.056, -1.344e-4
-1.057, -1.344e-4
-1.058, -1.342e-4
-1.059, -1.336e-4
-1.060, -1.337e-4
-1.061, -1.331e-4
-1.062, -1.327e-4
-1.063, -1.326e-4
-1.064, -1.321e-4
-1.065, -1.319e-4
-1.066, -1.317e-4
-1.067, -1.310e-4
-1.068, -1.309e-4
-1.069, -1.305e-4
-1.070, -1.305e-4
-1.071, -1.299e-4
-1.072, -1.294e-4
-1.073, -1.293e-4
-1.074, -1.291e-4
-1.075, -1.284e-4
-1.076, -1.285e-4
-1.077, -1.280e-4
-1.078, -1.278e-4
-1.079, -1.273e-4
-1.080, -1.269e-4
-1.081, -1.267e-4
-1.082, -1.266e-4
-1.083, -1.261e-4
-1.084, -1.259e-4
-1.085, -1.254e-4
-1.086, -1.252e-4
-1.087, -1.249e-4
-1.088, -1.243e-4
-1.089, -1.242e-4
-1.090, -1.240e-4
-1.091, -1.236e-4
-1.092, -1.234e-4
-1.093, -1.230e-4
-1.094, -1.227e-4
-1.095, -1.225e-4
-1.096, -1.221e-4
-1.097, -1.218e-4
-1.098, -1.216e-4
-1.099, -1.213e-4
-1.100, -1.210e-4
-1.101, -1.207e-4
-1.102, -1.205e-4
-1.103, -1.203e-4
-1.104, -1.197e-4
-1.105, -1.195e-4
-1.106, -1.193e-4
-1.107, -1.190e-4
-1.108, -1.187e-4
-1.109, -1.185e-4
-1.110, -1.182e-4
-1.111, -1.181e-4
-1.112, -1.177e-4
-1.113, -1.173e-4
-1.114, -1.172e-4
-1.115, -1.169e-4
-1.116, -1.166e-4
-1.117, -1.164e-4
-1.118, -1.162e-4
-1.119, -1.159e-4
-1.120, -1.155e-4
-1.121, -1.153e-4
-1.122, -1.151e-4
-1.123, -1.149e-4
-1.124, -1.146e-4
-1.125, -1.143e-4
-1.126, -1.143e-4
-1.127, -1.140e-4
-1.128, -1.137e-4
-1.129, -1.135e-4
-1.130, -1.133e-4
-1.131, -1.130e-4
-1.132, -1.128e-4
-1.133, -1.126e-4
-1.134, -1.125e-4
-1.135, -1.124e-4
-1.136, -1.119e-4
-1.137, -1.117e-4
-1.138, -1.116e-4
-1.139, -1.112e-4
-1.140, -1.110e-4
-1.141, -1.107e-4
-1.142, -1.106e-4
-1.143, -1.107e-4
-1.144, -1.102e-4
-1.145, -1.102e-4
-1.146, -1.099e-4
-1.147, -1.097e-4
-1.148, -1.096e-4
-1.149, -1.093e-4
-1.150, -1.093e-4
-1.151, -1.092e-4
-1.152, -1.090e-4
-1.153, -1.087e-4
-1.154, -1.085e-4
-1.155, -1.083e-4
-1.156, -1.081e-4
-1.157, -1.078e-4
-1.158, -1.077e-4
-1.159, -1.075e-4
-1.160, -1.074e-4
-1.161, -1.073e-4
-1.162, -1.072e-4
-1.163, -1.069e-4
-1.164, -1.067e-4
-1.165, -1.064e-4
-1.166, -1.064e-4
-1.167, -1.063e-4
-1.168, -1.061e-4
-1.169, -1.060e-4
-1.170, -1.058e-4
-1.171, -1.055e-4
-1.172, -1.056e-4
-1.173, -1.052e-4
-1.174, -1.051e-4
-1.175, -1.050e-4
-1.176, -1.049e-4
-1.177, -1.048e-4
-1.178, -1.045e-4
-1.179, -1.043e-4
-1.180, -1.044e-4
-1.181, -1.041e-4
-1.182, -1.040e-4
-1.183, -1.038e-4
-1.184, -1.038e-4
-1.185, -1.036e-4
-1.186, -1.034e-4
-1.187, -1.033e-4
-1.188, -1.033e-4
-1.189, -1.031e-4
-1.190, -1.027e-4
-1.191, -1.029e-4
-1.192, -1.026e-4
-1.193, -1.025e-4
-1.194, -1.024e-4
-1.195, -1.023e-4
-1.196, -1.022e-4
-1.197, -1.020e-4
-1.198, -1.020e-4
-1.199, -1.017e-4
-1.200, -1.016e-4
-1.201, -1.015e-4
-1.202, -1.013e-4
-1.203, -1.014e-4
-1.204, -1.013e-4
-1.205, -1.011e-4
-1.206, -1.009e-4
-1.207, -1.007e-4
-1.208, -1.008e-4
-1.209, -1.004e-4
-1.210, -1.004e-4
-1.211, -1.004e-4
-1.212, -1.004e-4
-1.213, -1.003e-4
-1.214, -1.001e-4
-1.215, -9.995e-5
-1.216, -9.964e-5
-1.217, -9.967e-5
-1.218, -9.949e-5
-1.219, -9.955e-5
-1.220, -9.931e-5
-1.221, -9.940e-5
-1.222, -9.916e-5
-1.223, -9.903e-5
-1.224, -9.891e-5
-1.225, -9.879e-5
-1.226, -9.864e-5
-1.227, -9.858e-5
-1.228, -9.861e-5
-1.229, -9.827e-5
-1.230, -9.824e-5
-1.231, -9.821e-5
-1.232, -9.803e-5
-1.233, -9.800e-5
-1.234, -9.785e-5
-1.235, -9.775e-5
-1.236, -9.779e-5
-1.237, -9.757e-5
-1.238, -9.751e-5
-1.239, -9.739e-5
-1.240, -9.742e-5
-1.241, -9.712e-5
-1.242, -9.708e-5
-1.243, -9.690e-5
-1.244, -9.684e-5
-1.245, -9.678e-5
-1.246, -9.675e-5
-1.247, -9.660e-5
-1.248, -9.648e-5
-1.249, -9.635e-5
-1.250, -9.626e-5
-1.251, -9.611e-5
-1.252, -9.608e-5
-1.253, -9.596e-5
-1.254, -9.602e-5
-1.255, -9.590e-5
-1.256, -9.565e-5
-1.257, -9.562e-5
-1.258, -9.547e-5
-1.259, -9.550e-5
-1.260, -9.520e-5
-1.261, -9.523e-5
-1.262, -9.511e-5
-1.263, -9.492e-5
-1.264, -9.489e-5
-1.265, -9.486e-5
-1.266, -9.468e-5
-1.267, -9.444e-5
-1.268, -9.444e-5
-1.269, -9.437e-5
-1.270, -9.428e-5
-1.271, -9.422e-5
-1.272, -9.407e-5
-1.273, -9.410e-5
-1.274, -9.386e-5
-1.275, -9.380e-5
-1.276, -9.370e-5
-1.277, -9.346e-5
-1.278, -9.340e-5
-1.279, -9.331e-5
-1.280, -9.316e-5
-1.281, -9.319e-5
-1.282, -9.303e-5
-1.283, -9.300e-5
-1.284, -9.279e-5
-1.285, -9.264e-5
-1.286, -9.255e-5
-1.287, -9.246e-5
-1.288, -9.243e-5
-1.289, -9.243e-5
-1.290, -9.218e-5
-1.291, -9.212e-5
-1.292, -9.209e-5
-1.293, -9.191e-5
-1.294, -9.169e-5
-1.295, -9.166e-5
-1.296, -9.163e-5
-1.297, -9.157e-5
-1.298, -9.136e-5
-1.299, -9.133e-5
-1.300, -9.115e-5
-1.301, -9.112e-5
-1.302, -9.090e-5
-1.303, -9.069e-5
-1.304, -9.075e-5
-1.305, -9.078e-5
-1.306, -9.060e-5
-1.307, -9.048e-5
-1.308, -9.032e-5
-1.309, -9.026e-5
-1.310, -9.023e-5
-1.311, -8.996e-5
-1.312, -8.993e-5
-1.313, -8.975e-5
-1.314, -8.971e-5
-1.315, -8.953e-5
-1.316, -8.947e-5
-1.317, -8.941e-5
-1.318, -8.908e-5
-1.319, -8.908e-5
-1.320, -8.901e-5
-1.321, -8.886e-5
-1.322, -8.883e-5
-1.323, -8.865e-5
-1.324, -8.868e-5
-1.325, -8.853e-5
-1.326, -8.847e-5
-1.327, -8.819e-5
-1.328, -8.807e-5
-1.329, -8.807e-5
-1.330, -8.792e-5
-1.331, -8.786e-5
-1.332, -8.770e-5
-1.333, -8.758e-5
-1.334, -8.746e-5
-1.335, -8.746e-5
-1.336, -8.716e-5
-1.337, -8.710e-5
-1.338, -8.713e-5
-1.339, -8.697e-5
-1.340, -8.670e-5
-1.341, -8.667e-5
-1.342, -8.664e-5
-1.343, -8.643e-5
-1.344, -8.624e-5
-1.345, -8.618e-5
-1.346, -8.615e-5
-1.347, -8.585e-5
-1.348, -8.570e-5
-1.349, -8.579e-5
-1.350, -8.557e-5
-1.351, -8.551e-5
-1.352, -8.536e-5
-1.353, -8.524e-5
-1.354, -8.515e-5
-1.355, -8.487e-5
-1.356, -8.478e-5
-1.357, -8.490e-5
-1.358, -8.466e-5
-1.359, -8.457e-5
-1.360, -8.439e-5
-1.361, -8.420e-5
-1.362, -8.420e-5
-1.363, -8.405e-5
-1.364, -8.390e-5
-1.365, -8.378e-5
-1.366, -8.362e-5
-1.367, -8.353e-5
-1.368, -8.338e-5
-1.369, -8.314e-5
-1.370, -8.323e-5
-1.371, -8.295e-5
-1.372, -8.280e-5
-1.373, -8.274e-5
-1.374, -8.262e-5
-1.375, -8.250e-5
-1.376, -8.228e-5
-1.377, -8.222e-5
-1.378, -8.201e-5
-1.379, -8.195e-5
-1.380, -8.174e-5
-1.381, -8.164e-5
-1.382, -8.140e-5
-1.383, -8.155e-5
-1.384, -8.137e-5
-1.385, -8.113e-5
-1.386, -8.101e-5
-1.387, -8.094e-5
-1.388, -8.082e-5
-1.389, -8.070e-5
-1.390, -8.052e-5
-1.391, -8.040e-5
-1.392, -8.021e-5
-1.393, -8.009e-5
-1.394, -8.000e-5
-1.395, -7.973e-5
-1.396, -7.960e-5
-1.397, -7.963e-5
-1.398, -7.939e-5
-1.399, -7.936e-5
-1.400, -7.915e-5
-1.401, -7.893e-5
-1.402, -7.884e-5
-1.403, -7.884e-5
-1.404, -7.866e-5
-1.405, -7.857e-5
-1.406, -7.833e-5
-1.407, -7.833e-5
-1.408, -7.811e-5
-1.409, -7.790e-5
-1.410, -7.790e-5
-1.411, -7.778e-5
-1.412, -7.759e-5
-1.413, -7.756e-5
-1.414, -7.720e-5
-1.415, -7.732e-5
-1.416, -7.711e-5
-1.417, -7.686e-5
-1.418, -7.686e-5
-1.419, -7.677e-5
-1.420, -7.659e-5
-1.421, -7.644e-5
-1.422, -7.622e-5
-1.423, -7.619e-5
-1.424, -7.595e-5
-1.425, -7.580e-5
-1.426, -7.583e-5
-1.427, -7.574e-5
-1.428, -7.558e-5
-1.429, -7.549e-5
-1.430, -7.519e-5
-1.431, -7.522e-5
-1.432, -7.510e-5
-1.433, -7.461e-5
-1.434, -7.479e-5
-1.435, -7.458e-5
-1.436, -7.449e-5
-1.437, -7.437e-5
-1.438, -7.437e-5
-1.439, -7.415e-5
-1.440, -7.397e-5
-1.441, -7.385e-5
-1.442, -7.385e-5
-1.443, -7.376e-5
-1.444, -7.367e-5
-1.445, -7.354e-5
-1.446, -7.321e-5
-1.447, -7.321e-5
-1.448, -7.312e-5
-1.449, -7.284e-5
-1.450, -7.300e-5
-1.451, -7.278e-5
-1.452, -7.266e-5
-1.453, -7.254e-5
-1.454, -7.245e-5
-1.455, -7.230e-5
-1.456, -7.220e-5
-1.457, -7.211e-5
-1.458, -7.202e-5
-1.459, -7.193e-5
-1.460, -7.184e-5
-1.461, -7.166e-5
-1.462, -7.150e-5
-1.463, -7.144e-5
-1.464, -7.138e-5
-1.465, -7.120e-5
-1.466, -7.114e-5
-1.467, -7.096e-5
-1.468, -7.093e-5
-1.469, -7.074e-5
-1.470, -7.056e-5
-1.471, -7.059e-5
-1.472, -7.044e-5
-1.473, -7.032e-5
-1.474, -7.032e-5
-1.475, -7.004e-5
-1.476, -7.010e-5
-1.477, -6.995e-5
-1.478, -6.971e-5
-1.479, -6.980e-5
-1.480, -6.974e-5
-1.481, -6.943e-5
-1.482, -6.949e-5
-1.483, -6.922e-5
-1.484, -6.928e-5
-1.485, -6.895e-5
-1.486, -6.892e-5
-1.487, -6.882e-5
-1.488, -6.892e-5
-1.489, -6.876e-5
-1.490, -6.870e-5
-1.491, -6.843e-5
-1.492, -6.843e-5
-1.493, -6.840e-5
-1.494, -6.821e-5
-1.495, -6.821e-5
-1.496, -6.800e-5
-1.497, -6.791e-5
-1.498, -6.791e-5
-1.499, -6.782e-5
-1.500, -6.773e-5
-1.501, -6.745e-5
-1.502, -6.727e-5
-1.503, -6.742e-5
-1.504, -6.727e-5
-1.505, -6.724e-5
-1.506, -6.718e-5
-1.507, -6.697e-5
-1.508, -6.700e-5
-1.509, -6.694e-5
-1.510, -6.681e-5
-1.511, -6.672e-5
-1.512, -6.675e-5
-1.513, -6.663e-5
-1.514, -6.639e-5
-1.515, -6.639e-5
-1.516, -6.633e-5
-1.517, -6.627e-5
-1.518, -6.605e-5
-1.519, -6.602e-5
-1.520, -6.596e-5
-1.521, -6.590e-5
-1.522, -6.581e-5
-1.523, -6.560e-5
-1.524, -6.572e-5
-1.525, -6.563e-5
-1.526, -6.535e-5
-1.527, -6.535e-5
-1.528, -6.532e-5
-1.529, -6.520e-5
-1.530, -6.523e-5
-1.531, -6.499e-5
-1.532, -6.496e-5
-1.533, -6.493e-5
-1.534, -6.480e-5
-1.535, -6.471e-5
-1.536, -6.480e-5
-1.537, -6.456e-5
-1.538, -6.456e-5
-1.539, -6.450e-5
-1.540, -6.441e-5
-1.541, -6.432e-5
-1.542, -6.435e-5
-1.543, -6.426e-5
-1.544, -6.401e-5
-1.545, -6.410e-5
-1.546, -6.398e-5
-1.547, -6.383e-5
-1.548, -6.386e-5
-1.549, -6.371e-5
-1.550, -6.374e-5
-1.551, -6.362e-5
-1.552, -6.340e-5
-1.553, -6.343e-5
-1.554, -6.334e-5
-1.555, -6.328e-5
-1.556, -6.322e-5
-1.557, -6.322e-5
-1.558, -6.313e-5
-1.559, -6.316e-5
-1.560, -6.295e-5
-1.561, -6.304e-5
-1.562, -6.282e-5
-1.563, -6.282e-5
-1.564, -6.273e-5
-1.565, -6.276e-5
-1.566, -6.264e-5
-1.567, -6.258e-5
-1.568, -6.243e-5
-1.569, -6.246e-5
-1.570, -6.237e-5
-1.571, -6.218e-5
-1.572, -6.237e-5
-1.573, -6.218e-5
-1.574, -6.203e-5
-1.575, -6.212e-5
-1.576, -6.206e-5
-1.577, -6.194e-5
-1.578, -6.191e-5
-1.579, -6.176e-5
-1.580, -6.173e-5
-1.581, -6.167e-5
-1.582, -6.167e-5
-1.583, -6.161e-5
-1.584, -6.155e-5
-1.585, -6.148e-5
-1.586, -6.151e-5
-1.587, -6.133e-5
-1.588, -6.136e-5
-1.589, -6.127e-5
-1.590, -6.127e-5
-1.591, -6.124e-5
-1.592, -6.112e-5
-1.593, -6.100e-5
-1.594, -6.106e-5
-1.595, -6.094e-5
-1.596, -6.097e-5
-1.597, -6.088e-5
-1.598, -6.081e-5
-1.599, -6.072e-5
-1.600, -6.069e-5
-1.601, -6.063e-5
-1.602, -6.069e-5
-1.603, -6.060e-5
-1.604, -6.060e-5
-1.605, -6.042e-5
-1.606, -6.039e-5
-1.607, -6.036e-5
-1.608, -6.033e-5
-1.609, -6.030e-5
-1.610, -6.027e-5
-1.611, -6.017e-5
-1.612, -6.017e-5
-1.613, -6.011e-5
-1.614, -6.008e-5
-1.615, -6.002e-5
-1.616, -5.993e-5
-1.617, -5.993e-5
-1.618, -5.996e-5
-1.619, -5.975e-5
-1.620, -5.984e-5
-1.621, -5.981e-5
-1.622, -5.972e-5
-1.623, -5.966e-5
-1.624, -5.960e-5
-1.625, -5.960e-5
-1.626, -5.963e-5
-1.627, -5.944e-5
-1.628, -5.947e-5
-1.629, -5.938e-5
-1.630, -5.935e-5
-1.631, -5.938e-5
-1.632, -5.920e-5
-1.633, -5.932e-5
-1.634, -5.932e-5
-1.635, -5.926e-5
-1.636, -5.932e-5
-1.637, -5.914e-5
-1.638, -5.880e-5
-1.639, -5.905e-5
-1.640, -5.887e-5
-1.641, -5.893e-5
-1.642, -5.899e-5
-1.643, -5.887e-5
-1.644, -5.896e-5
-1.645, -5.880e-5
-1.646, -5.877e-5
-1.647, -5.884e-5
-1.648, -5.862e-5
-1.649, -5.871e-5
-1.650, -5.865e-5
-1.651, -5.856e-5
-1.652, -5.865e-5
-1.653, -5.856e-5
-1.654, -5.850e-5
-1.655, -5.862e-5
-1.656, -5.838e-5
-1.657, -5.847e-5
-1.658, -5.823e-5
-1.659, -5.847e-5
-1.660, -5.832e-5
-1.661, -5.841e-5
-1.662, -5.823e-5
-1.663, -5.832e-5
-1.664, -5.829e-5
-1.665, -5.826e-5
-1.666, -5.807e-5
-1.667, -5.817e-5
-1.668, -5.810e-5
-1.669, -5.817e-5
-1.670, -5.795e-5
-1.671, -5.807e-5
-1.672, -5.798e-5
-1.673, -5.795e-5
-1.674, -5.789e-5
-1.675, -5.789e-5
-1.676, -5.783e-5
-1.677, -5.774e-5
-1.678, -5.771e-5
-1.679, -5.783e-5
-1.680, -5.771e-5
-1.681, -5.771e-5
-1.682, -5.759e-5
-1.683, -5.768e-5
-1.684, -5.762e-5
-1.685, -5.756e-5
-1.686, -5.762e-5
-1.687, -5.762e-5
-1.688, -5.753e-5
-1.689, -5.750e-5
-1.690, -5.746e-5
-1.691, -5.746e-5
-1.692, -5.737e-5
-1.693, -5.725e-5
-1.694, -5.725e-5
-1.695, -5.731e-5
-1.696, -5.728e-5
-1.697, -5.728e-5
-1.698, -5.728e-5
-1.699, -5.725e-5
-1.700, -5.335e-5
-1.699, -5.150e-5
-1.698, -5.067e-5
-1.697, -4.991e-5
-1.696, -4.930e-5
-1.695, -4.866e-5
-1.694, -4.808e-5
-1.693, -4.778e-5
-1.692, -4.732e-5
-1.691, -4.674e-5
-1.690, -4.656e-5
-1.689, -4.607e-5
-1.688, -4.586e-5
-1.687, -4.550e-5
-1.686, -4.510e-5
-1.685, -4.486e-5
-1.684, -4.455e-5
-1.683, -4.428e-5
-1.682, -4.416e-5
-1.681, -4.385e-5
-1.680, -4.367e-5
-1.679, -4.340e-5
-1.678, -4.315e-5
-1.677, -4.306e-5
-1.676, -4.279e-5
-1.675, -4.257e-5
-1.674, -4.233e-5
-1.673, -4.212e-5
-1.672, -4.212e-5
-1.671, -4.187e-5
-1.670, -4.163e-5
-1.669, -4.157e-5
-1.668, -4.139e-5
-1.667, -4.114e-5
-1.666, -4.114e-5
-1.665, -4.087e-5
-1.664, -4.090e-5
-1.663, -4.072e-5
-1.662, -4.056e-5
-1.661, -4.047e-5
-1.660, -4.041e-5
-1.659, -4.026e-5
-1.658, -4.011e-5
-1.657, -3.992e-5
-1.656, -3.989e-5
-1.655, -3.974e-5
-1.654, -3.965e-5
-1.653, -3.968e-5
-1.652, -3.959e-5
-1.651, -3.953e-5
-1.650, -3.928e-5
-1.649, -3.904e-5
-1.648, -3.922e-5
-1.647, -3.910e-5
-1.646, -3.886e-5
-1.645, -3.892e-5
-1.644, -3.886e-5
-1.643, -3.880e-5
-1.642, -3.871e-5
-1.641, -3.858e-5
-1.640, -3.852e-5
-1.639, -3.849e-5
-1.638, -3.819e-5
-1.637, -3.837e-5
-1.636, -3.828e-5
-1.635, -3.822e-5
-1.634, -3.813e-5
-1.633, -3.797e-5
-1.632, -3.807e-5
-1.631, -3.791e-5
-1.630, -3.773e-5
-1.629, -3.782e-5
-1.628, -3.779e-5
-1.627, -3.767e-5
-1.626, -3.782e-5
-1.625, -3.755e-5
-1.624, -3.761e-5
-1.623, -3.740e-5
-1.622, -3.733e-5
-1.621, -3.730e-5
-1.620, -3.737e-5
-1.619, -3.727e-5
-1.618, -3.724e-5
-1.617, -3.706e-5
-1.616, -3.709e-5
-1.615, -3.709e-5
-1.614, -3.694e-5
-1.613, -3.688e-5
-1.612, -3.691e-5
-1.611, -3.691e-5
-1.610, -3.685e-5
-1.609, -3.679e-5
-1.608, -3.679e-5
-1.607, -3.670e-5
-1.606, -3.651e-5
-1.605, -3.660e-5
-1.604, -3.657e-5
-1.603, -3.654e-5
-1.602, -3.648e-5
-1.601, -3.639e-5
-1.600, -3.657e-5
-1.599, -3.651e-5
-1.598, -3.630e-5
-1.597, -3.630e-5
-1.596, -3.615e-5
-1.595, -3.615e-5
-1.594, -3.621e-5
-1.593, -3.615e-5
-1.592, -3.615e-5
-1.591, -3.615e-5
-1.590, -3.593e-5
-1.589, -3.593e-5
-1.588, -3.590e-5
-1.587, -3.596e-5
-1.586, -3.581e-5
-1.585, -3.578e-5
-1.584, -3.581e-5
-1.583, -3.584e-5
-1.582, -3.569e-5
-1.581, -3.569e-5
-1.580, -3.551e-5
-1.579, -3.563e-5
-1.578, -3.560e-5
-1.577, -3.545e-5
-1.576, -3.551e-5
-1.575, -3.566e-5
-1.574, -3.551e-5
-1.573, -3.551e-5
-1.572, -3.529e-5
-1.571, -3.542e-5
-1.570, -3.520e-5
-1.569, -3.514e-5
-1.568, -3.529e-5
-1.567, -3.520e-5
-1.566, -3.520e-5
-1.565, -3.523e-5
-1.564, -3.499e-5
-1.563, -3.511e-5
-1.562, -3.496e-5
-1.561, -3.490e-5
-1.560, -3.511e-5
-1.559, -3.496e-5
-1.558, -3.493e-5
-1.557, -3.487e-5
-1.556, -3.475e-5
-1.555, -3.481e-5
-1.554, -3.481e-5
-1.553, -3.462e-5
-1.552, -3.484e-5
-1.551, -3.469e-5
-1.550, -3.469e-5
-1.549, -3.472e-5
-1.548, -3.456e-5
-1.547, -3.465e-5
-1.546, -3.453e-5
-1.545, -3.441e-5
-1.544, -3.453e-5
-1.543, -3.447e-5
-1.542, -3.444e-5
-1.541, -3.444e-5
-1.540, -3.447e-5
-1.539, -3.432e-5
-1.538, -3.432e-5
-1.537, -3.417e-5
-1.536, -3.417e-5
-1.535, -3.420e-5
-1.534, -3.423e-5
-1.533, -3.414e-5
-1.532, -3.423e-5
-1.531, -3.405e-5
-1.530, -3.408e-5
-1.529, -3.395e-5
-1.528, -3.408e-5
-1.527, -3.392e-5
-1.526, -3.395e-5
-1.525, -3.395e-5
-1.524, -3.383e-5
-1.523, -3.395e-5
-1.522, -3.389e-5
-1.521, -3.374e-5
-1.520, -3.386e-5
-1.519, -3.371e-5
-1.518, -3.374e-5
-1.517, -3.371e-5
-1.516, -3.371e-5
-1.515, -3.368e-5
-1.514, -3.362e-5
-1.513, -3.356e-5
-1.512, -3.356e-5
-1.511, -3.341e-5
-1.510, -3.347e-5
-1.509, -3.344e-5
-1.508, -3.335e-5
-1.507, -3.341e-5
-1.506, -3.344e-5
-1.505, -3.328e-5
-1.504, -3.328e-5
-1.503, -3.322e-5
-1.502, -3.325e-5
-1.501, -3.322e-5
-1.500, -3.307e-5
-1.499, -3.310e-5
-1.498, -3.338e-5
-1.497, -3.316e-5
-1.496, -3.304e-5
-1.495, -3.310e-5
-1.494, -3.304e-5
-1.493, -3.298e-5
-1.492, -3.286e-5
-1.491, -3.295e-5
-1.490, -3.307e-5
-1.489, -3.289e-5
-1.488, -3.289e-5
-1.487, -3.274e-5
-1.486, -3.274e-5
-1.485, -3.277e-5
-1.484, -3.268e-5
-1.483, -3.280e-5
-1.482, -3.274e-5
-1.481, -3.271e-5
-1.480, -3.264e-5
-1.479, -3.255e-5
-1.478, -3.249e-5
-1.477, -3.258e-5
-1.476, -3.234e-5
-1.475, -3.246e-5
-1.474, -3.243e-5
-1.473, -3.240e-5
-1.472, -3.246e-5
-1.471, -3.237e-5
-1.470, -3.234e-5
-1.469, -3.231e-5
-1.468, -3.219e-5
-1.467, -3.237e-5
-1.466, -3.222e-5
-1.465, -3.222e-5
-1.464, -3.228e-5
-1.463, -3.213e-5
-1.462, -3.207e-5
-1.461, -3.216e-5
-1.460, -3.197e-5
-1.459, -3.197e-5
-1.458, -3.197e-5
-1.457, -3.201e-5
-1.456, -3.197e-5
-1.455, -3.201e-5
-1.454, -3.188e-5
-1.453, -3.197e-5
-1.452, -3.182e-5
-1.451, -3.182e-5
-1.450, -3.179e-5
-1.449, -3.170e-5
-1.448, -3.176e-5
-1.447, -3.173e-5
-1.446, -3.164e-5
-1.445, -3.167e-5
-1.444, -3.164e-5
-1.443, -3.161e-5
-1.442, -3.152e-5
-1.441, -3.146e-5
-1.440, -3.149e-5
-1.439, -3.140e-5
-1.438, -3.149e-5
-1.437, -3.155e-5
-1.436, -3.146e-5
-1.435, -3.140e-5
-1.434, -3.167e-5
-1.433, -3.131e-5
-1.432, -3.134e-5
-1.431, -3.127e-5
-1.430, -3.127e-5
-1.429, -3.127e-5
-1.428, -3.124e-5
-1.427, -3.118e-5
-1.426, -3.109e-5
-1.425, -3.115e-5
-1.424, -3.103e-5
-1.423, -3.103e-5
-1.422, -3.100e-5
-1.421, -3.118e-5
-1.420, -3.100e-5
-1.419, -3.100e-5
-1.418, -3.094e-5
-1.417, -3.085e-5
-1.416, -3.091e-5
-1.415, -3.076e-5
-1.414, -3.085e-5
-1.413, -3.082e-5
-1.412, -3.076e-5
-1.411, -3.076e-5
-1.410, -3.082e-5
-1.409, -3.067e-5
-1.408, -3.045e-5
-1.407, -3.054e-5
-1.406, -3.057e-5
-1.405, -3.057e-5
-1.404, -3.057e-5
-1.403, -3.054e-5
-1.402, -3.057e-5
-1.401, -3.042e-5
-1.400, -3.045e-5
-1.399, -3.033e-5
-1.398, -3.033e-5
-1.397, -3.027e-5
-1.396, -3.024e-5
-1.395, -3.036e-5
-1.394, -3.027e-5
-1.393, -3.027e-5
-1.392, -3.030e-5
-1.391, -3.018e-5
-1.390, -3.015e-5
-1.389, -3.012e-5
-1.388, -3.009e-5
-1.387, -3.015e-5
-1.386, -3.012e-5
-1.385, -3.000e-5
-1.384, -3.003e-5
-1.383, -2.997e-5
-1.382, -2.993e-5
-1.381, -2.990e-5
-1.380, -2.981e-5
-1.379, -3.000e-5
-1.378, -2.981e-5
-1.377, -2.981e-5
-1.376, -2.984e-5
-1.375, -2.975e-5
-1.374, -2.966e-5
-1.373, -2.963e-5
-1.372, -2.960e-5
-1.371, -2.963e-5
-1.370, -2.972e-5
-1.369, -2.957e-5
-1.368, -2.963e-5
-1.367, -2.954e-5
-1.366, -2.951e-5
-1.365, -2.942e-5
-1.364, -2.945e-5
-1.363, -2.939e-5
-1.362, -2.939e-5
-1.361, -2.936e-5
-1.360, -2.939e-5
-1.359, -2.933e-5
-1.358, -2.923e-5
-1.357, -2.917e-5
-1.356, -2.917e-5
-1.355, -2.920e-5
-1.354, -2.902e-5
-1.353, -2.926e-5
-1.352, -2.914e-5
-1.351, -2.914e-5
-1.350, -2.902e-5
-1.349, -2.899e-5
-1.348, -2.899e-5
-1.347, -2.902e-5
-1.346, -2.890e-5
-1.345, -2.893e-5
-1.344, -2.902e-5
-1.343, -2.884e-5
-1.342, -2.881e-5
-1.341, -2.881e-5
-1.340, -2.875e-5
-1.339, -2.869e-5
-1.338, -2.872e-5
-1.337, -2.866e-5
-1.336, -2.869e-5
-1.335, -2.863e-5
-1.334, -2.853e-5
-1.333, -2.853e-5
-1.332, -2.856e-5
-1.331, -2.835e-5
-1.330, -2.841e-5
-1.329, -2.844e-5
-1.328, -2.841e-5
-1.327, -2.844e-5
-1.326, -2.841e-5
-1.325, -2.835e-5
-1.324, -2.820e-5
-1.323, -2.826e-5
-1.322, -2.817e-5
-1.321, -2.823e-5
-1.320, -2.811e-5
-1.319, -2.826e-5
-1.318, -2.808e-5
-1.317, -2.814e-5
-1.316, -2.805e-5
-1.315, -2.808e-5
-1.314, -2.802e-5
-1.313, -2.792e-5
-1.312, -2.792e-5
-1.311, -2.789e-5
-1.310, -2.789e-5
-1.309, -2.789e-5
-1.308, -2.780e-5
-1.307, -2.783e-5
-1.306, -2.762e-5
-1.305, -2.768e-5
-1.304, -2.759e-5
-1.303, -2.765e-5
-1.302, -2.768e-5
-1.301, -2.762e-5
-1.300, -2.750e-5
-1.299, -2.756e-5
-1.298, -2.750e-5
-1.297, -2.747e-5
-1.296, -2.741e-5
-1.295, -2.738e-5
-1.294, -2.741e-5
-1.293, -2.744e-5
-1.292, -2.735e-5
-1.291, -2.729e-5
-1.290, -2.722e-5
-1.289, -2.716e-5
-1.288, -2.722e-5
-1.287, -2.716e-5
-1.286, -2.716e-5
-1.285, -2.704e-5
-1.284, -2.710e-5
-1.283, -2.710e-5
-1.282, -2.698e-5
-1.281, -2.707e-5
-1.280, -2.689e-5
-1.279, -2.695e-5
-1.278, -2.683e-5
-1.277, -2.680e-5
-1.276, -2.683e-5
-1.275, -2.677e-5
-1.274, -2.674e-5
-1.273, -2.665e-5
-1.272, -2.671e-5
-1.271, -2.658e-5
-1.270, -2.652e-5
-1.269, -2.646e-5
-1.268, -2.662e-5
-1.267, -2.665e-5
-1.266, -2.655e-5
-1.265, -2.649e-5
-1.264, -2.640e-5
-1.263, -2.640e-5
-1.262, -2.631e-5
-1.261, -2.625e-5
-1.260, -2.628e-5
-1.259, -2.631e-5
-1.258, -2.625e-5
-1.257, -2.622e-5
-1.256, -2.604e-5
-1.255, -2.613e-5
-1.254, -2.610e-5
-1.253, -2.601e-5
-1.252, -2.598e-5
-1.251, -2.595e-5
-1.250, -2.598e-5
-1.249, -2.585e-5
-1.248, -2.588e-5
-1.247, -2.582e-5
-1.246, -2.582e-5
-1.245, -2.573e-5
-1.244, -2.579e-5
-1.243, -2.573e-5
-1.242, -2.582e-5
-1.241, -2.567e-5
-1.240, -2.561e-5
-1.239, -2.549e-5
-1.238, -2.552e-5
-1.237, -2.540e-5
-1.236, -2.549e-5
-1.235, -2.537e-5
-1.234, -2.540e-5
-1.233, -2.531e-5
-1.232, -2.524e-5
-1.231, -2.524e-5
-1.230, -2.528e-5
-1.229, -2.540e-5
-1.228, -2.524e-5
-1.227, -2.515e-5
-1.226, -2.515e-5
-1.225, -2.497e-5
-1.224, -2.500e-5
-1.223, -2.503e-5
-1.222, -2.500e-5
-1.221, -2.482e-5
-1.220, -2.485e-5
-1.219, -2.476e-5
-1.218, -2.479e-5
-1.217, -2.470e-5
-1.216, -2.479e-5
-1.215, -2.467e-5
-1.214, -2.467e-5
-1.213, -2.461e-5
-1.212, -2.451e-5
-1.211, -2.445e-5
-1.210, -2.451e-5
-1.209, -2.430e-5
-1.208, -2.427e-5
-1.207, -2.427e-5
-1.206, -2.433e-5
-1.205, -2.421e-5
-1.204, -2.424e-5
-1.203, -2.403e-5
-1.202, -2.400e-5
-1.201, -2.400e-5
-1.200, -2.390e-5
-1.199, -2.390e-5
-1.198, -2.390e-5
-1.197, -2.387e-5
-1.196, -2.372e-5
-1.195, -2.369e-5
-1.194, -2.372e-5
-1.193, -2.351e-5
-1.192, -2.348e-5
-1.191, -2.357e-5
-1.190, -2.354e-5
-1.189, -2.348e-5
-1.188, -2.342e-5
-1.187, -2.323e-5
-1.186, -2.333e-5
-1.185, -2.311e-5
-1.184, -2.311e-5
-1.183, -2.314e-5
-1.182, -2.311e-5
-1.181, -2.299e-5
-1.180, -2.287e-5
-1.179, -2.284e-5
-1.178, -2.287e-5
-1.177, -2.275e-5
-1.176, -2.256e-5
-1.175, -2.253e-5
-1.174, -2.253e-5
-1.173, -2.250e-5
-1.172, -2.241e-5
-1.171, -2.235e-5
-1.170, -2.232e-5
-1.169, -2.220e-5
-1.168, -2.208e-5
-1.167, -2.214e-5
-1.166, -2.199e-5
-1.165, -2.208e-5
-1.164, -2.189e-5
-1.163, -2.177e-5
-1.162, -2.174e-5
-1.161, -2.171e-5
-1.160, -2.150e-5
-1.159, -2.147e-5
-1.158, -2.138e-5
-1.157, -2.135e-5
-1.156, -2.129e-5
-1.155, -2.122e-5
-1.154, -2.098e-5
-1.153, -2.104e-5
-1.152, -2.065e-5
-1.151, -2.086e-5
-1.150, -2.055e-5
-1.149, -2.062e-5
-1.148, -2.046e-5
-1.147, -2.037e-5
-1.146, -2.028e-5
-1.145, -2.019e-5
-1.144, -2.004e-5
-1.143, -1.988e-5
-1.142, -1.973e-5
-1.141, -1.973e-5
-1.140, -1.952e-5
-1.139, -1.955e-5
-1.138, -1.925e-5
-1.137, -1.928e-5
-1.136, -1.918e-5
-1.135, -1.891e-5
-1.134, -1.867e-5
-1.133, -1.885e-5
-1.132, -1.854e-5
-1.131, -1.830e-5
-1.130, -1.806e-5
-1.129, -1.818e-5
-1.128, -1.791e-5
-1.127, -1.769e-5
-1.126, -1.742e-5
-1.125, -1.745e-5
-1.124, -1.702e-5
-1.123, -1.675e-5
-1.122, -1.687e-5
-1.121, -1.663e-5
-1.120, -1.638e-5
-1.119, -1.623e-5
-1.118, -1.596e-5
-1.117, -1.571e-5
-1.116, -1.532e-5
-1.115, -1.516e-5
-1.114, -1.523e-5
-1.113, -1.498e-5
-1.112, -1.465e-5
-1.111, -1.431e-5
-1.110, -1.392e-5
-1.109, -1.382e-5
-1.108, -1.340e-5
-1.107, -1.303e-5
-1.106, -1.303e-5
-1.105, -1.255e-5
-1.104, -1.230e-5
-1.103, -1.200e-5
-1.102, -1.160e-5
-1.101, -1.099e-5
-1.100, -1.090e-5
-1.099, -1.041e-5
-1.098, -1.041e-5
-1.097, -9.835e-6
-1.096, -9.531e-6
-1.095, -9.257e-6
-1.094, -8.769e-6
-1.093, -8.587e-6
-1.092, -7.978e-6
-1.091, -7.521e-6
-1.090, -7.338e-6
-1.089, -6.790e-6
-1.088, -6.759e-6
-1.087, -6.029e-6
-1.086, -5.450e-6
-1.085, -5.085e-6
-1.084, -4.597e-6
-1.083, -4.110e-6
-1.082, -3.988e-6
-1.081, -3.288e-6
-1.080, -2.831e-6
-1.079, -2.435e-6
-1.078, -1.917e-6
-1.077, -1.491e-6
-1.076, -7.906e-7
-1.075, -3.947e-7
-1.074, 1.238e-9
-1.073, 8.539e-7
-1.072, 1.128e-6
-1.071, 1.615e-6
-1.070, 2.163e-6
-1.069, 2.620e-6
-1.068, 3.229e-6
-1.067, 3.991e-6
-1.066, 4.143e-6
-1.065, 4.904e-6
-1.064, 5.300e-6
-1.063, 5.879e-6
-1.062, 6.427e-6
-1.061, 6.579e-6
-1.060, 7.493e-6
-1.059, 8.193e-6
-1.058, 8.528e-6
-1.057, 9.229e-6
-1.056, 9.442e-6
-1.055, 1.036e-5
-1.054, 1.103e-5
-1.053, 1.121e-5
-1.052, 1.197e-5
-1.051, 1.273e-5
-1.050, 1.322e-5
-1.049, 1.361e-5
-1.048, 1.419e-5
-1.047, 1.483e-5
-1.046, 1.562e-5
-1.045, 1.568e-5
-1.044, 1.626e-5
-1.043, 1.706e-5
-1.042, 1.763e-5
-1.041, 1.830e-5
-1.040, 1.849e-5
-1.039, 1.974e-5
-1.038, 1.992e-5
-1.037, 1.961e-5
-1.036, 2.114e-5
-1.035, 2.153e-5
-1.034, 2.196e-5
-1.033, 2.293e-5
-1.032, 2.284e-5
-1.031, 2.409e-5
-1.030, 2.458e-5
-1.029, 2.455e-5
-1.028, 2.567e-5
-1.027, 2.625e-5
-1.026, 2.683e-5
-1.025, 2.759e-5
-1.024, 2.619e-5
-1.023, 2.893e-5
-1.022, 2.948e-5
-1.021, 2.881e-5
-1.020, 3.091e-5
-1.019, 3.088e-5
-1.018, 3.155e-5
-1.017, 3.204e-5
-1.016, 3.265e-5
-1.015, 3.380e-5
-1.014, 3.457e-5
-1.013, 3.466e-5
-1.012, 3.530e-5
-1.011, 3.545e-5
-1.010, 3.633e-5
-1.009, 3.789e-5
-1.008, 3.770e-5
-1.007, 3.880e-5
-1.006, 3.959e-5
-1.005, 3.971e-5
-1.004, 4.063e-5
-1.003, 4.133e-5
-1.002, 4.209e-5
-1.001, 4.270e-5
-1.000, 4.303e-5
-0.999, 4.431e-5
-0.998, 4.519e-5
-0.997, 4.513e-5
-0.996, 4.614e-5
-0.995, 4.669e-5
-0.994, 4.742e-5
-0.993, 4.833e-5
-0.992, 4.830e-5
-0.991, 4.937e-5
-0.990, 5.068e-5
-0.989, 5.025e-5
-0.988, 5.138e-5
-0.987, 5.220e-5
-0.986, 5.214e-5
-0.985, 5.308e-5
-0.984, 5.351e-5
-0.983, 5.448e-5
-0.982, 5.482e-5
-0.981, 5.524e-5
-0.980, 5.637e-5
-0.979, 5.661e-5
-0.978, 5.765e-5
-0.977, 5.826e-5
-0.976, 5.817e-5
-0.975, 5.920e-5
-0.974, 6.015e-5
-0.973, 6.009e-5
-0.972, 6.100e-5
-0.971, 6.146e-5
-0.970, 6.219e-5
-0.969, 6.283e-5
-0.968, 6.274e-5
-0.967, 6.353e-5
-0.966, 6.450e-5
-0.965, 6.450e-5
-0.964, 6.526e-5
-0.963, 6.554e-5
-0.962, 6.663e-5
-0.961, 6.718e-5
-0.960, 6.615e-5
-0.959, 6.794e-5
-0.958, 6.852e-5
-0.957, 6.843e-5
-0.956, 6.959e-5
-0.955, 6.953e-5
-0.954, 7.026e-5
-0.953, 7.105e-5
-0.952, 7.093e-5
-0.951, 7.175e-5
-0.950, 7.251e-5
-0.949, 7.288e-5
-0.948, 7.324e-5
-0.947, 7.437e-5
-0.946, 7.452e-5
-0.945, 7.522e-5
-0.944, 7.522e-5
-0.943, 7.577e-5
-0.942, 7.662e-5
-0.941, 7.690e-5
-0.940, 7.751e-5
-0.939, 7.769e-5
-0.938, 7.833e-5
-0.937, 7.924e-5
-0.936, 7.924e-5
-0.935, 7.988e-5
-0.934, 8.000e-5
-0.933, 8.064e-5
-0.932, 8.137e-5
-0.931, 8.171e-5
-0.930, 8.238e-5
-0.929, 8.299e-5
-0.928, 8.287e-5
-0.927, 8.372e-5
-0.926, 8.424e-5
-0.925, 8.433e-5
-0.924, 8.536e-5
-0.923, 8.512e-5
-0.922, 8.615e-5
-0.921, 8.682e-5
-0.920, 8.685e-5
-0.919, 8.743e-5
-0.918, 8.765e-5
-0.917, 8.801e-5
-0.916, 8.856e-5
-0.915, 8.850e-5
-0.914, 8.893e-5
-0.913, 8.972e-5
-0.912, 8.957e-5
-0.911, 8.987e-5
-0.910, 9.008e-5
-0.909, 8.999e-5
-0.908, 9.087e-5
-0.907, 9.069e-5
-0.906, 9.075e-5
-0.905, 9.136e-5
-0.904, 9.124e-5
-0.903, 9.139e-5
-0.902, 9.151e-5
-0.901, 9.164e-5
-0.900, 9.182e-5
-0.899, 9.154e-5
-0.898, 9.188e-5
-0.897, 9.206e-5
-0.896, 9.212e-5
-0.895, 9.206e-5
-0.894, 9.182e-5
-0.893, 9.154e-5
-0.892, 9.197e-5
-0.891, 9.139e-5
-0.890, 9.118e-5
-0.889, 9.124e-5
-0.888, 9.100e-5
-0.887, 9.094e-5
-0.886, 9.057e-5
-0.885, 9.057e-5
-0.884, 9.039e-5
-0.883, 8.953e-5
-0.882, 8.957e-5
-0.881, 8.938e-5
-0.880, 8.899e-5
-0.879, 8.877e-5
-0.878, 8.850e-5
-0.877, 8.801e-5
-0.876, 8.804e-5
-0.875, 8.725e-5
-0.874, 8.701e-5
-0.873, 8.673e-5
-0.872, 8.625e-5
-0.871, 8.603e-5
-0.870, 8.548e-5
-0.869, 8.518e-5
-0.868, 8.484e-5
-0.867, 8.417e-5
-0.866, 8.378e-5
-0.865, 8.344e-5
-0.864, 8.296e-5
-0.863, 8.265e-5
-0.862, 8.201e-5
-0.861, 8.146e-5
-0.860, 8.131e-5
-0.859, 8.067e-5
-0.858, 8.000e-5
-0.857, 7.979e-5
-0.856, 7.927e-5
-0.855, 7.888e-5
-0.854, 7.839e-5
-0.853, 7.787e-5
-0.852, 7.766e-5
-0.851, 7.693e-5
-0.850, 7.650e-5
-0.849, 7.601e-5
-0.848, 7.562e-5
-0.847, 7.522e-5
-0.846, 7.464e-5
-0.845, 7.437e-5
-0.844, 7.394e-5
-0.843, 7.333e-5
-0.842, 7.297e-5
-0.841, 7.248e-5
-0.840, 7.199e-5
-0.839, 7.172e-5
-0.838, 7.123e-5
-0.837, 7.065e-5
-0.836, 7.044e-5
-0.835, 6.986e-5
-0.834, 6.947e-5
-0.833, 6.907e-5
-0.832, 6.849e-5
-0.831, 6.834e-5
-0.830, 6.782e-5
-0.829, 6.730e-5
-0.828, 6.715e-5
-0.827, 6.660e-5
-0.826, 6.630e-5
-0.825, 6.584e-5
-0.824, 6.551e-5
-0.823, 6.520e-5
-0.822, 6.478e-5
-0.821, 6.438e-5
-0.820, 6.411e-5
-0.819, 6.347e-5
-0.818, 6.331e-5
-0.817, 6.298e-5
-0.816, 6.280e-5
-0.815, 6.237e-5
-0.814, 6.194e-5
-0.813, 6.164e-5
-0.812, 6.133e-5
-0.811, 6.100e-5
-0.810, 6.073e-5
-0.809, 6.036e-5
-0.808, 6.003e-5
-0.807, 5.984e-5
-0.806, 5.936e-5
-0.805, 5.905e-5
-0.804, 5.887e-5
-0.803, 5.862e-5
-0.802, 5.832e-5
-0.801, 5.805e-5
-0.800, 5.771e-5
-0.799, 5.762e-5
-0.798, 5.722e-5
-0.797, 5.695e-5
-0.796, 5.674e-5
-0.795, 5.637e-5
-0.794, 5.631e-5
-0.793, 5.597e-5
-0.792, 5.570e-5
-0.791, 5.558e-5
-0.790, 5.521e-5
-0.789, 5.497e-5
-0.788, 5.473e-5
-0.787, 5.451e-5
-0.786, 5.421e-5
-0.785, 5.409e-5
-0.784, 5.372e-5
-0.783, 5.375e-5
-0.782, 5.342e-5
-0.781, 5.305e-5
-0.780, 5.296e-5
-0.779, 5.266e-5
-0.778, 5.253e-5
-0.777, 5.235e-5
-0.776, 5.208e-5
-0.775, 5.202e-5
-0.774, 5.177e-5
-0.773, 5.162e-5
-0.772, 5.141e-5
-0.771, 5.119e-5
-0.770, 5.101e-5
-0.769, 5.083e-5
-0.768, 5.055e-5
-0.767, 5.052e-5
-0.766, 5.031e-5
-0.765, 5.013e-5
-0.764, 4.998e-5
-0.763, 4.976e-5
-0.762, 4.961e-5
-0.761, 4.946e-5
-0.760, 4.924e-5
-0.759, 4.918e-5
-0.758, 4.897e-5
-0.757, 4.897e-5
-0.756, 4.873e-5
-0.755, 4.848e-5
-0.754, 4.845e-5
-0.753, 4.827e-5
-0.752, 4.800e-5
-0.751, 4.803e-5
-0.750, 4.781e-5
-0.749, 4.769e-5
-0.748, 4.760e-5
-0.747, 4.742e-5
-0.746, 4.739e-5
-0.745, 4.714e-5
-0.744, 4.702e-5
-0.743, 4.690e-5
-0.742, 4.675e-5
-0.741, 4.672e-5
-0.740, 4.653e-5
-0.739, 4.638e-5
-0.738, 4.629e-5
-0.737, 4.608e-5
-0.736, 4.599e-5
-0.735, 4.599e-5
-0.734, 4.577e-5
-0.733, 4.571e-5
-0.732, 4.553e-5
-0.731, 4.544e-5
-0.730, 4.526e-5
-0.729, 4.522e-5
-0.728, 4.507e-5
-0.727, 4.498e-5
-0.726, 4.492e-5
-0.725, 4.480e-5
-0.724, 4.468e-5
-0.723, 4.452e-5
-0.722, 4.459e-5
-0.721, 4.434e-5
-0.720, 4.428e-5
-0.719, 4.425e-5
-0.718, 4.413e-5
-0.717, 4.419e-5
-0.716, 4.392e-5
-0.715, 4.373e-5
-0.714, 4.379e-5
-0.713, 4.364e-5
-0.712, 4.355e-5
-0.711, 4.349e-5
-0.710, 4.337e-5
-0.709, 4.325e-5
-0.708, 4.321e-5
-0.707, 4.306e-5
-0.706, 4.306e-5
-0.705, 4.294e-5
-0.704, 4.276e-5
-0.703, 4.279e-5
-0.702, 4.270e-5
-0.701, 4.261e-5
-0.700, 4.251e-5
-0.699, 4.236e-5
-0.698, 4.236e-5
-0.697, 4.230e-5
-0.696, 4.224e-5
-0.695, 4.212e-5
-0.694, 4.209e-5
-0.693, 4.200e-5
-0.692, 4.197e-5
-0.691, 4.191e-5
-0.690, 4.178e-5
-0.689, 4.166e-5
-0.688, 4.169e-5
-0.687, 4.151e-5
-0.686, 4.151e-5
-0.685, 4.148e-5
-0.684, 4.133e-5
-0.683, 4.127e-5
-0.682, 4.120e-5
-0.681, 4.120e-5
-0.680, 4.117e-5
-0.679, 4.096e-5
-0.678, 4.099e-5
-0.677, 4.093e-5
-0.676, 4.081e-5
-0.675, 4.075e-5
-0.674, 4.069e-5
-0.673, 4.069e-5
-0.672, 4.060e-5
-0.671, 4.053e-5
-0.670, 4.057e-5
-0.669, 4.050e-5
-0.668, 4.035e-5
-0.667, 4.023e-5
-0.666, 4.014e-5
-0.665, 4.014e-5
-0.664, 4.020e-5
-0.663, 4.008e-5
-0.662, 3.999e-5
-0.661, 3.999e-5
-0.660, 3.986e-5
-0.659, 3.983e-5
-0.658, 3.977e-5
-0.657, 3.971e-5
-0.656, 3.968e-5
-0.655, 3.959e-5
-0.654, 3.965e-5
-0.653, 3.941e-5
-0.652, 3.941e-5
-0.651, 3.938e-5
-0.650, 3.935e-5
-0.649, 3.926e-5
-0.648, 3.926e-5
-0.647, 3.916e-5
-0.646, 3.916e-5
-0.645, 3.919e-5
-0.644, 3.895e-5
-0.643, 3.901e-5
-0.642, 3.895e-5
-0.641, 3.892e-5
-0.640, 3.904e-5
-0.639, 3.886e-5
-0.638, 3.874e-5
-0.637, 3.880e-5
-0.636, 3.871e-5
-0.635, 3.865e-5
-0.634, 3.859e-5
-0.633, 3.859e-5
-0.632, 3.846e-5
-0.631, 3.840e-5
-0.630, 3.837e-5
-0.629, 3.831e-5
-0.628, 3.834e-5
-0.627, 3.825e-5
-0.626, 3.819e-5
-0.625, 3.816e-5
-0.624, 3.813e-5
-0.623, 3.807e-5
-0.622, 3.807e-5
-0.621, 3.798e-5
-0.620, 3.798e-5
-0.619, 3.795e-5
-0.618, 3.782e-5
-0.617, 3.789e-5
-0.616, 3.785e-5
-0.615, 3.764e-5
-0.614, 3.758e-5
-0.613, 3.764e-5
-0.612, 3.755e-5
-0.611, 3.764e-5
-0.610, 3.749e-5
-0.609, 3.755e-5
-0.608, 3.752e-5
-0.607, 3.737e-5
-0.606, 3.737e-5
-0.605, 3.731e-5
-0.604, 3.728e-5
-0.603, 3.728e-5
-0.602, 3.709e-5
-0.601, 3.722e-5
-0.600, 3.728e-5
-0.599, 3.712e-5
-0.598, 3.706e-5
-0.597, 3.706e-5
-0.596, 3.706e-5
-0.595, 3.703e-5
-0.594, 3.691e-5
-0.593, 3.697e-5
-0.592, 3.700e-5
-0.591, 3.682e-5
-0.590, 3.682e-5
-0.589, 3.694e-5
-0.588, 3.676e-5
-0.587, 3.673e-5
-0.586, 3.664e-5
-0.585, 3.664e-5
-0.584, 3.673e-5
-0.583, 3.655e-5
-0.582, 3.655e-5
-0.581, 3.648e-5
-0.580, 3.645e-5
-0.579, 3.639e-5
-0.578, 3.655e-5
-0.577, 3.636e-5
-0.576, 3.630e-5
-0.575, 3.627e-5
-0.574, 3.627e-5
-0.573, 3.621e-5
-0.572, 3.621e-5
-0.571, 3.615e-5
-0.570, 3.615e-5
-0.569, 3.606e-5
-0.568, 3.615e-5
-0.567, 3.603e-5
-0.566, 3.606e-5
-0.565, 3.597e-5
-0.564, 3.603e-5
-0.563, 3.588e-5
-0.562, 3.585e-5
-0.561, 3.578e-5
-0.560, 3.591e-5
-0.559, 3.578e-5
-0.558, 3.591e-5
-0.557, 3.572e-5
-0.556, 3.585e-5
-0.555, 3.572e-5
-0.554, 3.572e-5
-0.553, 3.560e-5
-0.552, 3.566e-5
-0.551, 3.557e-5
-0.550, 3.560e-5
-0.549, 3.548e-5
-0.548, 3.551e-5
-0.547, 3.557e-5
-0.546, 3.548e-5
-0.545, 3.530e-5
-0.544, 3.539e-5
-0.543, 3.539e-5
-0.542, 3.554e-5
-0.541, 3.530e-5
-0.540, 3.533e-5
-0.539, 3.536e-5
-0.538, 3.530e-5
-0.537, 3.521e-5
-0.536, 3.524e-5
-0.535, 3.521e-5
-0.534, 3.527e-5
-0.533, 3.511e-5
-0.532, 3.518e-5
-0.531, 3.514e-5
-0.530, 3.505e-5
-0.529, 3.502e-5
-0.528, 3.505e-5
-0.527, 3.493e-5
-0.526, 3.496e-5
-0.525, 3.481e-5
-0.524, 3.493e-5
-0.523, 3.502e-5
-0.522, 3.487e-5
-0.521, 3.481e-5
-0.520, 3.487e-5
-0.519, 3.478e-5
-0.518, 3.490e-5
-0.517, 3.472e-5
-0.516, 3.472e-5
-0.515, 3.478e-5
-0.514, 3.460e-5
-0.513, 3.472e-5
-0.512, 3.478e-5
-0.511, 3.457e-5
-0.510, 3.469e-5
-0.509, 3.454e-5
-0.508, 3.460e-5
-0.507, 3.466e-5
-0.506, 3.447e-5
-0.505, 3.451e-5
-0.504, 3.441e-5
-0.503, 3.447e-5
-0.502, 3.447e-5
-0.501, 3.441e-5
-0.500, 3.435e-5
-0.499, 3.432e-5
-0.498, 3.432e-5
-0.497, 3.432e-5
-0.496, 3.429e-5
-0.495, 3.426e-5
-0.494, 3.426e-5
-0.493, 3.417e-5
-0.492, 3.417e-5
-0.491, 3.423e-5
-0.490, 3.417e-5
-0.489, 3.429e-5
-0.488, 3.408e-5
-0.487, 3.417e-5
-0.486, 3.414e-5
-0.485, 3.411e-5
-0.484, 3.399e-5
-0.483, 3.408e-5
-0.482, 3.402e-5
-0.481, 3.399e-5
-0.480, 3.399e-5
-0.479, 3.393e-5
-0.478, 3.399e-5
-0.477, 3.396e-5
-0.476, 3.387e-5
-0.475, 3.396e-5
-0.474, 3.365e-5
-0.473, 3.396e-5
-0.472, 3.380e-5
-0.471, 3.384e-5
-0.470, 3.384e-5
-0.469, 3.377e-5
-0.468, 3.371e-5
-0.467, 3.377e-5
-0.466, 3.365e-5
-0.465, 3.371e-5
-0.464, 3.362e-5
-0.463, 3.371e-5
-0.462, 3.368e-5
-0.461, 3.350e-5
-0.460, 3.353e-5
-0.459, 3.356e-5
-0.458, 3.353e-5
-0.457, 3.365e-5
-0.456, 3.347e-5
-0.455, 3.356e-5
-0.454, 3.359e-5
-0.453, 3.335e-5
-0.452, 3.335e-5
-0.451, 3.341e-5
-0.450, 3.329e-5
-0.449, 3.344e-5
-0.448, 3.323e-5
-0.447, 3.335e-5
-0.446, 3.335e-5
-0.445, 3.323e-5
-0.444, 3.326e-5
-0.443, 3.323e-5
-0.442, 3.326e-5
-0.441, 3.326e-5
-0.440, 3.317e-5
-0.439, 3.313e-5
-0.438, 3.320e-5
-0.437, 3.310e-5
-0.436, 3.313e-5
-0.435, 3.323e-5
-0.434, 3.307e-5
-0.433, 3.310e-5
-0.432, 3.307e-5
-0.431, 3.295e-5
-0.430, 3.313e-5
-0.429, 3.286e-5
-0.428, 3.298e-5
-0.427, 3.283e-5
-0.426, 3.286e-5
-0.425, 3.295e-5
-0.424, 3.283e-5
-0.423, 3.283e-5
-0.422, 3.295e-5
-0.421, 3.277e-5
-0.420, 3.289e-5
-0.419, 3.274e-5
-0.418, 3.277e-5
-0.417, 3.277e-5
-0.416, 3.265e-5
-0.415, 3.268e-5
-0.414, 3.280e-5
-0.413, 3.265e-5
-0.412, 3.268e-5
-0.411, 3.262e-5
-0.410, 3.210e-5
-0.409, 3.259e-5
-0.408, 3.250e-5
-0.407, 3.240e-5
-0.406, 3.253e-5
-0.405, 3.240e-5
-0.404, 3.256e-5
-0.403, 3.243e-5
-0.402, 3.243e-5
-0.401, 3.259e-5
-0.400, 3.237e-5
-0.399, 3.240e-5
-0.398, 3.237e-5
-0.397, 3.213e-5
-0.396, 3.243e-5
-0.395, 3.222e-5
-0.394, 3.231e-5
-0.393, 3.237e-5
-0.392, 3.225e-5
-0.391, 3.219e-5
-0.390, 3.228e-5
-0.389, 3.222e-5
-0.388, 3.231e-5
-0.387, 3.216e-5
-0.386, 3.213e-5
-0.385, 3.225e-5
-0.384, 3.222e-5
-0.383, 3.210e-5
-0.382, 3.216e-5
-0.381, 3.198e-5
-0.380, 3.216e-5
-0.379, 3.201e-5
-0.378, 3.207e-5
-0.377, 3.213e-5
-0.376, 3.204e-5
-0.375, 3.192e-5
-0.374, 3.195e-5
-0.373, 3.189e-5
-0.372, 3.201e-5
-0.371, 3.179e-5
-0.370, 3.186e-5
-0.369, 3.198e-5
-0.368, 3.189e-5
-0.367, 3.176e-5
-0.366, 3.176e-5
-0.365, 3.176e-5
-0.364, 3.173e-5
-0.363, 3.173e-5
-0.362, 3.176e-5
-0.361, 3.186e-5
-0.360, 3.167e-5
-0.359, 3.173e-5
-0.358, 3.161e-5
-0.357, 3.161e-5
-0.356, 3.164e-5
-0.355, 3.158e-5
-0.354, 3.158e-5
-0.353, 3.170e-5
-0.352, 3.161e-5
-0.351, 3.161e-5
-0.350, 3.158e-5
-0.349, 3.146e-5
-0.348, 3.152e-5
-0.347, 3.152e-5
-0.346, 3.137e-5
-0.345, 3.152e-5
-0.344, 3.143e-5
-0.343, 3.149e-5
-0.342, 3.140e-5
-0.341, 3.137e-5
-0.340, 3.149e-5
-0.339, 3.140e-5
-0.338, 3.125e-5
-0.337, 3.152e-5
-0.336, 3.134e-5
-0.335, 3.137e-5
-0.334, 3.140e-5
-0.333, 3.149e-5
-0.332, 3.146e-5
-0.331, 3.125e-5
-0.330, 3.128e-5
-0.329, 3.134e-5
-0.328, 3.122e-5
-0.327, 3.128e-5
-0.326, 3.125e-5
-0.325, 3.122e-5
-0.324, 3.137e-5
-0.323, 3.116e-5
-0.322, 3.112e-5
-0.321, 3.122e-5
-0.320, 3.100e-5
-0.319, 3.116e-5
-0.318, 3.119e-5
-0.317, 3.112e-5
-0.316, 3.119e-5
-0.315, 3.106e-5
-0.314, 3.094e-5
-0.313, 3.109e-5
-0.312, 3.106e-5
-0.311, 3.109e-5
-0.310, 3.100e-5
-0.309, 3.103e-5
-0.308, 3.112e-5
-0.307, 3.109e-5
-0.306, 3.094e-5
-0.305, 3.097e-5
-0.304, 3.091e-5
-0.303, 3.097e-5
-0.302, 3.100e-5
-0.301, 3.091e-5
-0.300, 3.106e-5
-0.299, 3.085e-5
-0.298, 3.091e-5
-0.297, 3.091e-5
-0.296, 3.085e-5
-0.295, 3.091e-5
-0.294, 3.079e-5
-0.293, 3.082e-5
-0.292, 3.094e-5
-0.291, 3.076e-5
-0.290, 3.079e-5
-0.289, 3.085e-5
-0.288, 3.073e-5
-0.287, 3.079e-5
-0.286, 3.082e-5
-0.285, 3.070e-5
-0.284, 3.085e-5
-0.283, 3.076e-5
-0.282, 3.088e-5
-0.281, 3.073e-5
-0.280, 3.067e-5
-0.279, 3.073e-5
-0.278, 3.073e-5
-0.277, 3.061e-5
-0.276, 3.073e-5
-0.275, 3.061e-5
-0.274, 3.064e-5
-0.273, 3.064e-5
-0.272, 3.067e-5
-0.271, 3.067e-5
-0.270, 3.064e-5
-0.269, 3.039e-5
-0.268, 3.061e-5
-0.267, 3.052e-5
-0.266, 3.061e-5
-0.265, 3.052e-5
-0.264, 3.058e-5
-0.263, 3.058e-5
-0.262, 3.052e-5
-0.261, 3.039e-5
-0.260, 3.052e-5
-0.259, 3.052e-5
-0.258, 3.058e-5
-0.257, 3.049e-5
-0.256, 3.039e-5
-0.255, 3.052e-5
-0.254, 3.049e-5
-0.253, 3.033e-5
-0.252, 3.042e-5
-0.251, 3.036e-5
-0.250, 3.042e-5
-0.249, 3.045e-5
-0.248, 3.045e-5
-0.247, 3.049e-5
-0.246, 3.039e-5
-0.245, 3.024e-5
-0.244, 3.027e-5
-0.243, 3.021e-5
-0.242, 3.024e-5
-0.241, 3.030e-5
-0.240, 3.027e-5
-0.239, 3.033e-5
-0.238, 3.024e-5
-0.237, 3.021e-5
-0.236, 3.030e-5
-0.235, 3.018e-5
-0.234, 3.021e-5
-0.233, 3.021e-5
-0.232, 3.012e-5
-0.231, 3.027e-5
-0.230, 3.018e-5
-0.229, 3.015e-5
-0.228, 3.015e-5
-0.227, 3.003e-5
-0.226, 3.006e-5
-0.225, 3.009e-5
-0.224, 3.006e-5
-0.223, 3.015e-5
-0.222, 3.003e-5
-0.221, 3.003e-5
-0.220, 3.009e-5
-0.219, 3.000e-5
-0.218, 2.991e-5
-0.217, 3.003e-5
-0.216, 2.988e-5
-0.215, 3.000e-5
-0.214, 3.000e-5
-0.213, 2.994e-5
-0.212, 2.994e-5
-0.211, 2.988e-5
-0.210, 2.988e-5
-0.209, 2.994e-5
-0.208, 2.988e-5
-0.207, 2.994e-5
-0.206, 2.985e-5
-0.205, 2.948e-5
-0.204, 2.972e-5
-0.203, 2.978e-5
-0.202, 2.982e-5
-0.201, 2.982e-5
-0.200, 2.966e-5
-0.199, 2.988e-5
-0.198, 2.972e-5
-0.197, 2.969e-5
-0.196, 2.972e-5
-0.195, 2.969e-5
-0.194, 2.972e-5
-0.193, 2.969e-5
-0.192, 2.942e-5
-0.191, 2.966e-5
-0.190, 2.966e-5
-0.189, 2.966e-5
-0.188, 2.954e-5
-0.187, 2.963e-5
-0.186, 2.960e-5
-0.185, 2.960e-5
-0.184, 2.942e-5
-0.183, 2.957e-5
-0.182, 2.951e-5
-0.181, 2.957e-5
-0.180, 2.945e-5
-0.179, 2.963e-5
-0.178, 2.951e-5
-0.177, 2.942e-5
-0.176, 2.942e-5
-0.175, 2.948e-5
-0.174, 2.939e-5
-0.173, 2.948e-5
-0.172, 2.939e-5
-0.171, 2.939e-5
-0.170, 2.948e-5
-0.169, 2.942e-5
-0.168, 2.930e-5
-0.167, 2.936e-5
-0.166, 2.936e-5
-0.165, 2.933e-5
-0.164, 2.930e-5
-0.163, 2.930e-5
-0.162, 2.933e-5
-0.161, 2.930e-5
-0.160, 2.930e-5
-0.159, 2.930e-5
-0.158, 2.924e-5
-0.157, 2.924e-5
-0.156, 2.921e-5
-0.155, 2.927e-5
-0.154, 2.921e-5
-0.153, 2.921e-5
-0.152, 2.915e-5
-0.151, 2.915e-5
-0.150, 2.915e-5
-0.149, 2.918e-5
-0.148, 2.918e-5
-0.147, 2.908e-5
-0.146, 2.924e-5
-0.145, 2.908e-5
-0.144, 2.911e-5
-0.143, 2.911e-5
-0.142, 2.902e-5
-0.141, 2.893e-5
-0.140, 2.911e-5
-0.139, 2.905e-5
-0.138, 2.911e-5
-0.137, 2.902e-5
-0.136, 2.899e-5
-0.135, 2.899e-5
-0.134, 2.908e-5
-0.133, 2.902e-5
-0.132, 2.908e-5
-0.131, 2.890e-5
-0.130, 2.908e-5
-0.129, 2.902e-5
-0.128, 2.924e-5
-0.127, 2.893e-5
-0.126, 2.902e-5
-0.125, 2.905e-5
-0.124, 2.896e-5
-0.123, 2.893e-5
-0.122, 2.896e-5
-0.121, 2.899e-5
-0.120, 2.902e-5
-0.119, 2.893e-5
-0.118, 2.899e-5
-0.117, 2.902e-5
-0.116, 2.893e-5
-0.115, 2.878e-5
-0.114, 2.893e-5
-0.113, 2.893e-5
-0.112, 2.896e-5
-0.111, 2.890e-5
-0.110, 2.896e-5
-0.109, 2.899e-5
-0.108, 2.899e-5
-0.107, 2.890e-5
-0.106, 2.896e-5
-0.105, 2.896e-5
-0.104, 2.896e-5
-0.103, 2.893e-5
-0.102, 2.908e-5
-0.101, 2.902e-5
-0.100, 2.893e-5
-0.099, 2.884e-5
-0.098, 2.893e-5
-0.097, 2.899e-5
-0.096, 2.902e-5
-0.095, 2.893e-5
-0.094, 2.902e-5
-0.093, 2.911e-5
-0.092, 2.896e-5
-0.091, 2.893e-5
-0.090, 2.875e-5
-0.089, 2.896e-5
-0.088, 2.899e-5
-0.087, 2.896e-5
-0.086, 2.905e-5
-0.085, 2.905e-5
-0.084, 2.899e-5
-0.083, 2.890e-5
-0.082, 2.902e-5
-0.081, 2.908e-5
-0.080, 2.911e-5
-0.079, 2.902e-5
-0.078, 2.905e-5
-0.077, 2.933e-5
-0.076, 2.915e-5
-0.075, 2.911e-5
-0.074, 2.908e-5
-0.073, 2.915e-5
-0.072, 2.915e-5
-0.071, 2.915e-5
-0.070, 2.918e-5
-0.069, 2.924e-5
-0.068, 2.921e-5
-0.067, 2.921e-5
-0.066, 2.918e-5
-0.065, 2.924e-5
-0.064, 2.905e-5
-0.063, 2.921e-5
-0.062, 2.918e-5
-0.061, 2.930e-5
-0.060, 2.930e-5
-0.059, 2.930e-5
-0.058, 2.930e-5
-0.057, 2.933e-5
-0.056, 2.936e-5
-0.055, 2.939e-5
-0.054, 2.933e-5
-0.053, 2.945e-5
-0.052, 2.942e-5
-0.051, 2.939e-5
-0.050, 2.936e-5
-0.049, 2.954e-5
-0.048, 2.954e-5
-0.047, 2.951e-5
-0.046, 2.942e-5
-0.045, 2.957e-5
-0.044, 2.957e-5
-0.043, 2.966e-5
-0.042, 2.960e-5
-0.041, 2.975e-5
-0.040, 2.966e-5
-0.039, 2.966e-5
-0.038, 2.966e-5
-0.037, 2.978e-5
-0.036, 2.978e-5
-0.035, 2.985e-5
-0.034, 2.982e-5
-0.033, 2.985e-5
-0.032, 2.994e-5
-0.031, 2.982e-5
-0.030, 2.985e-5
-0.029, 2.997e-5
-0.028, 2.997e-5
-0.027, 3.003e-5
-0.026, 3.018e-5
-0.025, 3.012e-5
-0.024, 3.021e-5
-0.023, 3.006e-5
-0.022, 3.012e-5
-0.021, 3.012e-5
-0.020, 3.018e-5
-0.019, 3.024e-5
-0.018, 3.027e-5
-0.017, 3.033e-5
-0.016, 3.045e-5
-0.015, 3.030e-5
-0.014, 3.036e-5
-0.013, 3.024e-5
-0.012, 3.045e-5
-0.011, 3.052e-5
-0.010, 3.036e-5
-0.009, 3.061e-5
-0.008, 3.070e-5
-0.007, 3.055e-5
-0.006, 3.064e-5
-0.005, 3.061e-5
-0.004, 3.070e-5
-0.003, 3.073e-5
-0.002, 3.073e-5
-0.001, 3.088e-5
-0.000, 3.039e-5
0.001, 3.076e-5
0.002, 3.085e-5
0.003, 3.088e-5
0.004, 3.091e-5
0.005, 3.094e-5
0.006, 3.094e-5
0.007, 3.100e-5
0.008, 3.116e-5
0.009, 3.109e-5
0.010, 3.119e-5
0.011, 3.116e-5
0.012, 3.125e-5
0.013, 3.112e-5
0.014, 3.131e-5
0.015, 3.131e-5
0.016, 3.137e-5
0.017, 3.134e-5
0.018, 3.146e-5
0.019, 3.137e-5
0.020, 3.152e-5
0.021, 3.155e-5
0.022, 3.152e-5
0.023, 3.155e-5
0.024, 3.164e-5
0.025, 3.170e-5
0.026, 3.179e-5
0.027, 3.176e-5
0.028, 3.179e-5
0.029, 3.186e-5
0.030, 3.179e-5
0.031, 3.195e-5
0.032, 3.192e-5
0.033, 3.198e-5
0.034, 3.210e-5
0.035, 3.201e-5
0.036, 3.210e-5
0.037, 3.225e-5
0.038, 3.198e-5
0.039, 3.213e-5
0.040, 3.219e-5
0.041, 3.222e-5
0.042, 3.237e-5
0.043, 3.222e-5
0.044, 3.240e-5
0.045, 3.250e-5
0.046, 3.240e-5
0.047, 3.240e-5
0.048, 3.250e-5
0.049, 3.256e-5
0.050, 3.268e-5
0.051, 3.246e-5
0.052, 3.268e-5
0.053, 3.283e-5
0.054, 3.265e-5
0.055, 3.277e-5
0.056, 3.283e-5
0.057, 3.280e-5
0.058, 3.295e-5
0.059, 3.286e-5
0.060, 3.295e-5
0.061, 3.307e-5
0.062, 3.295e-5
0.063, 3.301e-5
0.064, 3.289e-5
0.065, 3.310e-5
0.066, 3.320e-5
0.067, 3.310e-5
0.068, 3.320e-5
0.069, 3.335e-5
0.070, 3.323e-5
0.071, 3.326e-5
0.072, 3.332e-5
0.073, 3.338e-5
0.074, 3.341e-5
0.075, 3.344e-5
0.076, 3.353e-5
0.077, 3.374e-5
0.078, 3.356e-5
0.079, 3.365e-5
0.080, 3.356e-5
0.081, 3.371e-5
0.082, 3.368e-5
0.083, 3.371e-5
0.084, 3.374e-5
0.085, 3.390e-5
0.086, 3.377e-5
0.087, 3.396e-5
0.088, 3.384e-5
0.089, 3.387e-5
0.090, 3.387e-5
0.091, 3.393e-5
0.092, 3.399e-5
0.093, 3.411e-5
0.094, 3.402e-5
0.095, 3.417e-5
0.096, 3.408e-5
0.097, 3.420e-5
0.098, 3.423e-5
0.099, 3.423e-5
0.100, 3.417e-5
0.101, 3.432e-5
0.102, 3.444e-5
0.103, 3.451e-5
0.104, 3.438e-5
0.105, 3.447e-5
0.106, 3.447e-5
0.107, 3.447e-5
0.108, 3.447e-5
0.109, 3.454e-5
0.110, 3.447e-5
0.111, 3.463e-5
0.112, 3.457e-5
0.113, 3.469e-5
0.114, 3.472e-5
0.115, 3.454e-5
0.116, 3.466e-5
0.117, 3.466e-5
0.118, 3.472e-5
0.119, 3.490e-5
0.120, 3.481e-5
0.121, 3.490e-5
0.122, 3.499e-5
0.123, 3.484e-5
0.124, 3.478e-5
0.125, 3.487e-5
0.126, 3.487e-5
0.127, 3.505e-5
0.128, 3.508e-5
0.129, 3.505e-5
0.130, 3.518e-5
0.131, 3.505e-5
0.132, 3.502e-5
0.133, 3.505e-5
0.134, 3.508e-5
0.135, 3.527e-5
0.136, 3.518e-5
0.137, 3.514e-5
0.138, 3.530e-5
0.139, 3.518e-5
0.140, 3.521e-5
0.141, 3.505e-5
0.142, 3.524e-5
0.143, 3.530e-5
0.144, 3.524e-5
0.145, 3.527e-5
0.146, 3.545e-5
0.147, 3.527e-5
0.148, 3.530e-5
0.149, 3.536e-5
0.150, 3.536e-5
0.151, 3.536e-5
0.152, 3.533e-5
0.153, 3.539e-5
0.154, 3.551e-5
0.155, 3.539e-5
0.156, 3.542e-5
0.157, 3.533e-5
0.158, 3.542e-5
0.159, 3.545e-5
0.160, 3.542e-5
0.161, 3.536e-5
0.162, 3.551e-5
0.163, 3.539e-5
0.164, 3.554e-5
0.165, 3.548e-5
0.166, 3.533e-5
0.167, 3.551e-5
0.168, 3.542e-5
0.169, 3.539e-5
0.170, 3.554e-5
0.171, 3.539e-5
0.172, 3.545e-5
0.173, 3.545e-5
0.174, 3.545e-5
0.175, 3.554e-5
0.176, 3.542e-5
0.177, 3.536e-5
0.178, 3.551e-5
0.179, 3.563e-5
0.180, 3.557e-5
0.181, 3.542e-5
0.182, 3.545e-5
0.183, 3.554e-5
0.184, 3.545e-5
0.185, 3.533e-5
0.186, 3.548e-5
0.187, 3.533e-5
0.188, 3.548e-5
0.189, 3.539e-5
0.190, 3.539e-5
0.191, 3.554e-5
0.192, 3.514e-5
0.193, 3.527e-5
0.194, 3.536e-5
0.195, 3.530e-5
0.196, 3.542e-5
0.197, 3.521e-5
0.198, 3.530e-5
0.199, 3.536e-5
0.200, 3.518e-5
0.201, 3.527e-5
0.202, 3.521e-5
0.203, 3.518e-5
0.204, 3.524e-5
0.205, 3.490e-5
0.206, 3.514e-5
0.207, 3.518e-5
0.208, 3.502e-5
0.209, 3.508e-5
0.210, 3.505e-5
0.211, 3.499e-5
0.212, 3.505e-5
0.213, 3.505e-5
0.214, 3.496e-5
0.215, 3.511e-5
0.216, 3.487e-5
0.217, 3.490e-5
0.218, 3.490e-5
0.219, 3.484e-5
0.220, 3.490e-5
0.221, 3.481e-5
0.222, 3.466e-5
0.223, 3.496e-5
0.224, 3.475e-5
0.225, 3.478e-5
0.226, 3.472e-5
0.227, 3.472e-5
0.228, 3.472e-5
0.229, 3.466e-5
0.230, 3.478e-5
0.231, 3.478e-5
0.232, 3.463e-5
0.233, 3.460e-5
0.234, 3.460e-5
0.235, 3.460e-5
0.236, 3.457e-5
0.237, 3.454e-5
0.238, 3.441e-5
0.239, 3.457e-5
0.240, 3.441e-5
0.241, 3.447e-5
0.242, 3.444e-5
0.243, 3.429e-5
0.244, 3.441e-5
0.245, 3.432e-5
0.246, 3.423e-5
0.247, 3.438e-5
0.248, 3.432e-5
0.249, 3.435e-5
0.250, 3.432e-5
0.251, 3.426e-5
0.252, 3.435e-5
0.253, 3.417e-5
0.254, 3.420e-5
0.255, 3.420e-5
0.256, 3.405e-5
0.257, 3.420e-5
0.258, 3.420e-5
0.259, 3.414e-5
0.260, 3.426e-5
0.261, 3.411e-5
0.262, 3.408e-5
0.263, 3.414e-5
0.264, 3.414e-5
0.265, 3.417e-5
0.266, 3.411e-5
0.267, 3.414e-5
0.268, 3.426e-5
0.269, 3.393e-5
0.270, 3.411e-5
0.271, 3.411e-5
0.272, 3.405e-5
0.273, 3.414e-5
0.274, 3.423e-5
0.275, 3.411e-5
0.276, 3.426e-5
0.277, 3.417e-5
0.278, 3.411e-5
0.279, 3.420e-5
0.280, 3.420e-5
0.281, 3.429e-5
0.282, 3.435e-5
0.283, 3.426e-5
0.284, 3.447e-5
0.285, 3.435e-5
0.286, 3.441e-5
0.287, 3.451e-5
0.288, 3.441e-5
0.289, 3.451e-5
0.290, 3.460e-5
0.291, 3.457e-5
0.292, 3.472e-5
0.293, 3.466e-5
0.294, 3.469e-5
0.295, 3.478e-5
0.296, 3.484e-5
0.297, 3.496e-5
0.298, 3.499e-5
0.299, 3.496e-5
0.300, 3.530e-5
0.301, 3.514e-5
0.302, 3.533e-5
0.303, 3.539e-5
0.304, 3.548e-5
0.305, 3.557e-5
0.306, 3.569e-5
0.307, 3.585e-5
0.308, 3.597e-5
0.309, 3.600e-5
0.310, 3.618e-5
0.311, 3.630e-5
0.312, 3.639e-5
0.313, 3.658e-5
0.314, 3.664e-5
0.315, 3.670e-5
0.316, 3.703e-5
0.317, 3.703e-5
0.318, 3.728e-5
0.319, 3.740e-5
0.320, 3.743e-5
0.321, 3.776e-5
0.322, 3.798e-5
0.323, 3.801e-5
0.324, 3.831e-5
0.325, 3.846e-5
0.326, 3.880e-5
0.327, 3.892e-5
0.328, 3.923e-5
0.329, 3.953e-5
0.330, 3.959e-5
0.331, 3.977e-5
0.332, 4.023e-5
0.333, 4.050e-5
0.334, 4.072e-5
0.335, 4.102e-5
0.336, 4.130e-5
0.337, 4.172e-5
0.338, 4.191e-5
0.339, 4.212e-5
0.340, 4.251e-5
0.341, 4.285e-5
0.342, 4.325e-5
0.343, 4.367e-5
0.344, 4.398e-5
0.345, 4.446e-5
0.346, 4.468e-5
0.347, 4.504e-5
0.348, 4.559e-5
0.349, 4.599e-5
0.350, 4.644e-5
0.351, 4.690e-5
0.352, 4.723e-5
0.353, 4.797e-5
0.354, 4.833e-5
0.355, 4.876e-5
0.356, 4.934e-5
0.357, 4.991e-5
0.358, 5.043e-5
0.359, 5.110e-5
0.360, 5.162e-5
0.361, 5.235e-5
0.362, 5.278e-5
0.363, 5.351e-5
0.364, 5.424e-5
0.365, 5.488e-5
0.366, 5.561e-5
0.367, 5.622e-5
0.368, 5.704e-5
0.369, 5.811e-5
0.370, 5.875e-5
0.371, 5.923e-5
0.372, 6.033e-5
0.373, 6.106e-5
0.374, 6.204e-5
0.375, 6.310e-5
0.376, 6.386e-5
0.377, 6.514e-5
0.378, 6.599e-5
0.379, 6.703e-5
0.380, 6.816e-5
0.381, 6.919e-5
0.382, 7.047e-5
0.383, 7.166e-5
0.384, 7.309e-5
0.385, 7.443e-5
0.386, 7.550e-5
0.387, 7.684e-5
0.388, 7.833e-5
0.389, 7.958e-5
0.390, 8.131e-5
0.391, 8.268e-5
0.392, 8.414e-5
0.393, 8.600e-5
0.394, 8.762e-5
0.395, 8.941e-5
0.396, 9.109e-5
0.397, 9.234e-5
0.398, 9.505e-5
0.399, 9.678e-5
0.400, 9.858e-5
0.401, 1.011e-4
0.402, 1.029e-4
0.403, 1.053e-4
0.404, 1.076e-4
0.405, 1.097e-4
0.406, 1.126e-4
0.407, 1.146e-4
0.408, 1.174e-4
0.409, 1.204e-4
0.410, 1.198e-4
0.411, 1.246e-4
0.412, 1.280e-4
0.413, 1.306e-4
0.414, 1.341e-4
0.415, 1.373e-4
0.416, 1.401e-4
0.417, 1.440e-4
0.418, 1.470e-4
0.419, 1.506e-4
0.420, 1.545e-4
0.421, 1.576e-4
0.422, 1.619e-4
0.423, 1.639e-4
0.424, 1.697e-4
0.425, 1.740e-4
0.426, 1.769e-4
0.427, 1.821e-4
0.428, 1.863e-4
0.429, 1.897e-4
0.430, 1.961e-4
0.431, 1.987e-4
0.432, 2.042e-4
0.433, 2.096e-4
0.434, 2.118e-4
0.435, 2.200e-4
0.436, 2.243e-4
0.437, 2.281e-4
0.438, 2.341e-4
0.439, 2.383e-4
0.440, 2.438e-4
0.441, 2.493e-4
0.442, 2.528e-4
0.443, 2.595e-4
0.444, 2.648e-4
0.445, 2.679e-4
0.446, 2.757e-4
0.447, 2.796e-4
0.448, 2.837e-4
0.449, 2.899e-4
0.450, 2.949e-4
0.451, 2.994e-4
0.452, 3.048e-4
0.453, 3.093e-4
0.454, 3.159e-4
0.455, 3.179e-4
0.456, 3.232e-4
0.457, 3.313e-4
0.458, 3.317e-4
0.459, 3.376e-4
0.460, 3.430e-4
0.461, 3.439e-4
0.462, 3.501e-4
0.463, 3.547e-4
0.464, 3.573e-4
0.465, 3.627e-4
0.466, 3.634e-4
0.467, 3.692e-4
0.468, 3.728e-4
0.469, 3.732e-4
0.470, 3.793e-4
0.471, 3.802e-4
0.472, 3.820e-4
0.473, 3.876e-4
0.474, 3.849e-4
0.475, 3.906e-4
0.476, 3.929e-4
0.477, 3.929e-4
0.478, 3.975e-4
0.479, 3.971e-4
0.480, 3.991e-4
0.481, 4.020e-4
0.482, 4.010e-4
0.483, 4.041e-4
0.484, 4.041e-4
0.485, 4.048e-4
0.486, 4.067e-4
0.487, 4.084e-4
0.488, 4.062e-4
0.489, 4.084e-4
0.490, 4.070e-4
0.491, 4.085e-4
0.492, 4.078e-4
0.493, 4.074e-4
0.494, 4.084e-4
0.495, 4.067e-4
0.496, 4.067e-4
0.497, 4.067e-4
0.498, 4.059e-4
0.499, 4.045e-4
0.500, 4.038e-4
0.501, 4.036e-4
0.502, 4.031e-4
0.503, 4.014e-4
0.504, 4.008e-4
0.505, 3.999e-4
0.506, 3.979e-4
0.507, 3.975e-4
0.508, 3.953e-4
0.509, 3.944e-4
0.510, 3.932e-4
0.511, 3.915e-4
0.512, 3.911e-4
0.513, 3.887e-4
0.514, 3.872e-4
0.515, 3.861e-4
0.516, 3.839e-4
0.517, 3.819e-4
0.518, 3.809e-4
0.519, 3.786e-4
0.520, 3.770e-4
0.521, 3.752e-4
0.522, 3.731e-4
0.523, 3.717e-4
0.524, 3.697e-4
0.525, 3.670e-4
0.526, 3.658e-4
0.527, 3.637e-4
0.528, 3.619e-4
0.529, 3.597e-4
0.530, 3.582e-4
0.531, 3.563e-4
0.532, 3.544e-4
0.533, 3.521e-4
0.534, 3.503e-4
0.535, 3.484e-4
0.536, 3.467e-4
0.537, 3.446e-4
0.538, 3.429e-4
0.539, 3.410e-4
0.540, 3.391e-4
0.541, 3.370e-4
0.542, 3.351e-4
0.543, 3.333e-4
0.544, 3.312e-4
0.545, 3.294e-4
0.546, 3.276e-4
0.547, 3.257e-4
0.548, 3.239e-4
0.549, 3.222e-4
0.550, 3.200e-4
0.551, 3.185e-4
0.552, 3.169e-4
0.553, 3.150e-4
0.554, 3.132e-4
0.555, 3.116e-4
0.556, 3.099e-4
0.557, 3.082e-4
0.558, 3.065e-4
0.559, 3.049e-4
0.560, 3.033e-4
0.561, 3.017e-4
0.562, 2.999e-4
0.563, 2.984e-4
0.564, 2.969e-4
0.565, 2.955e-4
0.566, 2.938e-4
0.567, 2.924e-4
0.568, 2.909e-4
0.569, 2.893e-4
0.570, 2.878e-4
0.571, 2.864e-4
0.572, 2.850e-4
0.573, 2.837e-4
0.574, 2.822e-4
0.575, 2.809e-4
0.576, 2.795e-4
0.577, 2.781e-4
0.578, 2.768e-4
0.579, 2.754e-4
0.580, 2.743e-4
0.581, 2.729e-4
0.582, 2.716e-4
0.583, 2.705e-4
0.584, 2.692e-4
0.585, 2.679e-4
0.586, 2.668e-4
0.587, 2.656e-4
0.588, 2.644e-4
0.589, 2.635e-4
0.590, 2.621e-4
0.591, 2.610e-4
0.592, 2.600e-4
0.593, 2.588e-4
0.594, 2.578e-4
0.595, 2.565e-4
0.596, 2.555e-4
0.597, 2.545e-4
0.598, 2.535e-4
0.599, 2.524e-4
0.600, 2.515e-4
0.601, 2.504e-4
0.602, 2.495e-4
0.603, 2.484e-4
0.604, 2.476e-4
0.605, 2.466e-4
0.606, 2.456e-4
0.607, 2.446e-4
0.608, 2.438e-4
0.609, 2.429e-4
0.610, 2.420e-4
0.611, 2.411e-4
0.612, 2.402e-4
0.613, 2.394e-4
0.614, 2.381e-4
0.615, 2.375e-4
0.616, 2.367e-4
0.617, 2.359e-4
0.618, 2.352e-4
0.619, 2.342e-4
0.620, 2.335e-4
0.621, 2.327e-4
0.622, 2.318e-4
0.623, 2.310e-4
0.624, 2.303e-4
0.625, 2.296e-4
0.626, 2.288e-4
0.627, 2.279e-4
0.628, 2.274e-4
0.629, 2.266e-4
0.630, 2.258e-4
0.631, 2.251e-4
0.632, 2.244e-4
0.633, 2.237e-4
0.634, 2.231e-4
0.635, 2.224e-4
0.636, 2.217e-4
0.637, 2.211e-4
0.638, 2.203e-4
0.639, 2.196e-4
0.640, 2.191e-4
0.641, 2.184e-4
0.642, 2.179e-4
0.643, 2.170e-4
0.644, 2.165e-4
0.645, 2.159e-4
0.646, 2.152e-4
0.647, 2.146e-4
0.648, 2.140e-4
0.649, 2.134e-4
0.650, 2.128e-4
0.651, 2.123e-4
0.652, 2.117e-4
0.653, 2.111e-4
0.654, 2.104e-4
0.655, 2.099e-4
0.656, 2.094e-4
0.657, 2.088e-4
0.658, 2.083e-4
0.659, 2.077e-4
0.660, 2.071e-4
0.661, 2.067e-4
0.662, 2.060e-4
0.663, 2.055e-4
0.664, 2.050e-4
0.665, 2.046e-4
0.666, 2.040e-4
0.667, 2.035e-4
0.668, 2.029e-4
0.669, 2.025e-4
0.670, 2.020e-4
0.671, 2.015e-4
0.672, 2.009e-4
0.673, 2.004e-4
0.674, 2.000e-4
0.675, 1.995e-4
0.676, 1.990e-4
0.677, 1.986e-4
0.678, 1.979e-4
0.679, 1.977e-4
0.680, 1.971e-4
0.681, 1.967e-4
0.682, 1.963e-4
0.683, 1.958e-4
0.684, 1.954e-4
0.685, 1.950e-4
0.686, 1.944e-4
0.687, 1.942e-4
0.688, 1.936e-4
0.689, 1.931e-4
0.690, 1.927e-4
0.691, 1.925e-4
0.692, 1.919e-4
0.693, 1.916e-4
0.694, 1.910e-4
0.695, 1.908e-4
0.696, 1.902e-4
0.697, 1.899e-4
0.698, 1.895e-4
0.699, 1.891e-4
0.700, 1.887e-4
0.701, 1.883e-4
0.702, 1.878e-4
0.703, 1.876e-4
0.704, 1.870e-4
0.705, 1.869e-4
0.706, 1.865e-4
0.707, 1.859e-4
0.708, 1.856e-4
0.709, 1.852e-4
0.710, 1.848e-4
0.711, 1.846e-4
0.712, 1.841e-4
0.713, 1.839e-4
0.714, 1.836e-4
0.715, 1.830e-4
0.716, 1.828e-4
0.717, 1.824e-4
0.718, 1.821e-4
0.719, 1.818e-4
0.720, 1.814e-4
0.721, 1.810e-4
0.722, 1.808e-4
0.723, 1.803e-4
0.724, 1.800e-4
0.725, 1.796e-4
0.726, 1.794e-4
0.727, 1.791e-4
0.728, 1.787e-4
0.729, 1.783e-4
0.730, 1.782e-4
0.731, 1.777e-4
0.732, 1.774e-4
0.733, 1.771e-4
0.734, 1.768e-4
0.735, 1.765e-4
0.736, 1.761e-4
0.737, 1.758e-4
0.738, 1.757e-4
0.739, 1.752e-4
0.740, 1.750e-4
0.741, 1.747e-4
0.742, 1.745e-4
0.743, 1.740e-4
0.744, 1.738e-4
0.745, 1.734e-4
0.746, 1.733e-4
0.747, 1.729e-4
0.748, 1.726e-4
0.749, 1.723e-4
0.750, 1.720e-4
0.751, 1.719e-4
0.752, 1.715e-4
0.753, 1.711e-4
0.754, 1.710e-4
0.755, 1.704e-4
0.756, 1.704e-4
0.757, 1.700e-4
0.758, 1.698e-4
0.759, 1.696e-4
0.760, 1.693e-4
0.761, 1.689e-4
0.762, 1.688e-4
0.763, 1.685e-4
0.764, 1.683e-4
0.765, 1.680e-4
0.766, 1.676e-4
0.767, 1.676e-4
0.768, 1.671e-4
0.769, 1.669e-4
0.770, 1.668e-4
0.771, 1.664e-4
0.772, 1.663e-4
0.773, 1.659e-4
0.774, 1.657e-4
0.775, 1.655e-4
0.776, 1.652e-4
0.777, 1.649e-4
0.778, 1.647e-4
0.779, 1.645e-4
0.780, 1.643e-4
0.781, 1.639e-4
0.782, 1.638e-4
0.783, 1.636e-4
0.784, 1.633e-4
0.785, 1.630e-4
0.786, 1.628e-4
0.787, 1.625e-4
0.788, 1.625e-4
0.789, 1.621e-4
0.790, 1.620e-4
0.791, 1.619e-4
0.792, 1.614e-4
0.793, 1.613e-4
0.794, 1.610e-4
0.795, 1.608e-4
0.796, 1.607e-4
0.797, 1.603e-4
0.798, 1.602e-4
0.799, 1.602e-4
0.800, 1.597e-4
0.801, 1.595e-4
0.802, 1.593e-4
0.803, 1.592e-4
0.804, 1.589e-4
0.805, 1.587e-4
0.806, 1.584e-4
0.807, 1.583e-4
0.808, 1.581e-4
0.809, 1.579e-4
0.810, 1.576e-4
0.811, 1.575e-4
0.812, 1.574e-4
0.813, 1.570e-4
0.814, 1.568e-4
0.815, 1.568e-4
0.816, 1.564e-4
0.817, 1.563e-4
0.818, 1.561e-4
0.819, 1.554e-4
0.820, 1.556e-4
0.821, 1.555e-4
0.822, 1.552e-4
0.823, 1.552e-4
0.824, 1.550e-4
0.825, 1.547e-4
0.826, 1.545e-4
0.827, 1.544e-4
0.828, 1.542e-4
0.829, 1.540e-4
0.830, 1.538e-4
0.831, 1.538e-4
0.832, 1.534e-4
0.833, 1.533e-4
0.834, 1.531e-4
0.835, 1.530e-4
0.836, 1.528e-4
0.837, 1.526e-4
0.838, 1.523e-4
0.839, 1.522e-4
0.840, 1.521e-4
0.841, 1.520e-4
0.842, 1.518e-4
0.843, 1.516e-4
0.844, 1.515e-4
0.845, 1.513e-4
0.846, 1.510e-4
0.847, 1.510e-4
0.848, 1.507e-4
0.849, 1.507e-4
0.850, 1.504e-4
0.851, 1.502e-4
0.852, 1.502e-4
0.853, 1.499e-4
0.854, 1.496e-4
0.855, 1.496e-4
0.856, 1.494e-4
0.857, 1.493e-4
0.858, 1.492e-4
0.859, 1.490e-4
0.860, 1.489e-4
0.861, 1.486e-4
0.862, 1.484e-4
0.863, 1.484e-4
0.864, 1.482e-4
0.865, 1.481e-4
0.866, 1.479e-4
0.867, 1.478e-4
0.868, 1.477e-4
0.869, 1.474e-4
0.870, 1.471e-4
0.871, 1.471e-4
0.872, 1.469e-4
0.873, 1.469e-4
0.874, 1.466e-4
0.875, 1.465e-4
0.876, 1.464e-4
0.877, 1.461e-4
0.878, 1.460e-4
0.879, 1.458e-4
0.880, 1.457e-4
0.881, 1.457e-4
0.882, 1.455e-4
0.883, 1.451e-4
0.884, 1.452e-4
0.885, 1.450e-4
0.886, 1.448e-4
0.887, 1.447e-4
0.888, 1.446e-4
0.889, 1.445e-4
0.890, 1.444e-4
0.891, 1.442e-4
0.892, 1.441e-4
0.893, 1.438e-4
0.894, 1.437e-4
0.895, 1.436e-4
0.896, 1.437e-4
0.897, 1.434e-4
0.898, 1.433e-4
0.899, 1.430e-4
0.900, 1.430e-4
0.901, 1.428e-4
0.902, 1.426e-4
0.903, 1.425e-4
0.904, 1.424e-4
0.905, 1.422e-4
0.906, 1.421e-4
0.907, 1.420e-4
0.908, 1.419e-4
0.909, 1.416e-4
0.910, 1.416e-4
0.911, 1.415e-4
0.912, 1.413e-4
0.913, 1.412e-4
0.914, 1.412e-4
0.915, 1.408e-4
0.916, 1.409e-4
0.917, 1.406e-4
0.918, 1.406e-4
0.919, 1.404e-4
0.920, 1.404e-4
0.921, 1.403e-4
0.922, 1.401e-4
0.923, 1.398e-4
0.924, 1.398e-4
0.925, 1.396e-4
0.926, 1.397e-4
0.927, 1.394e-4
0.928, 1.394e-4
0.929, 1.392e-4
0.930, 1.391e-4
0.931, 1.389e-4
0.932, 1.389e-4
0.933, 1.387e-4
0.934, 1.386e-4
0.935, 1.385e-4
0.936, 1.384e-4
0.937, 1.383e-4
0.938, 1.381e-4
0.939, 1.379e-4
0.940, 1.379e-4
0.941, 1.378e-4
0.942, 1.377e-4
0.943, 1.376e-4
0.944, 1.376e-4
0.945, 1.375e-4
0.946, 1.373e-4
0.947, 1.373e-4
0.948, 1.371e-4
0.949, 1.369e-4
0.950, 1.369e-4
0.951, 1.368e-4
0.952, 1.366e-4
0.953, 1.366e-4
0.954, 1.365e-4
0.955, 1.362e-4
0.956, 1.362e-4
0.957, 1.361e-4
0.958, 1.360e-4
0.959, 1.359e-4
0.960, 1.356e-4
0.961, 1.357e-4
0.962, 1.356e-4
0.963, 1.355e-4
0.964, 1.353e-4
0.965, 1.352e-4
0.966, 1.352e-4
0.967, 1.350e-4
0.968, 1.350e-4
0.969, 1.350e-4
0.970, 1.348e-4
0.971, 1.346e-4
0.972, 1.345e-4
0.973, 1.343e-4
0.974, 1.344e-4
0.975, 1.343e-4
0.976, 1.341e-4
0.977, 1.342e-4
0.978, 1.340e-4
0.979, 1.338e-4
0.980, 1.339e-4
0.981, 1.336e-4
0.982, 1.336e-4
0.983, 1.336e-4
0.984, 1.334e-4
0.985, 1.334e-4
0.986, 1.333e-4
0.987, 1.332e-4
0.988, 1.329e-4
0.989, 1.329e-4
0.990, 1.329e-4
0.991, 1.328e-4
0.992, 1.327e-4
0.993, 1.327e-4
0.994, 1.326e-4
0.995, 1.326e-4
0.996, 1.324e-4
0.997, 1.324e-4
0.998, 1.325e-4
0.999, 1.322e-4
1.000, 1.259e-4
0.999, 1.240e-4
0.998, 1.233e-4
0.997, 1.230e-4
0.996, 1.221e-4
0.995, 1.217e-4
0.994, 1.214e-4
0.993, 1.209e-4
0.992, 1.204e-4
0.991, 1.202e-4
0.990, 1.197e-4
0.989, 1.196e-4
0.988, 1.191e-4
0.987, 1.189e-4
0.986, 1.188e-4
0.985, 1.182e-4
0.984, 1.180e-4
0.983, 1.177e-4
0.982, 1.174e-4
0.981, 1.172e-4
0.980, 1.169e-4
0.979, 1.167e-4
0.978, 1.164e-4
0.977, 1.162e-4
0.976, 1.160e-4
0.975, 1.157e-4
0.974, 1.154e-4
0.973, 1.155e-4
0.972, 1.151e-4
0.971, 1.148e-4
0.970, 1.148e-4
0.969, 1.144e-4
0.968, 1.142e-4
0.967, 1.140e-4
0.966, 1.138e-4
0.965, 1.138e-4
0.964, 1.134e-4
0.963, 1.133e-4
0.962, 1.132e-4
0.961, 1.129e-4
0.960, 1.127e-4
0.959, 1.125e-4
0.958, 1.123e-4
0.957, 1.123e-4
0.956, 1.119e-4
0.955, 1.118e-4
0.954, 1.118e-4
0.953, 1.114e-4
0.952, 1.113e-4
0.951, 1.110e-4
0.950, 1.109e-4
0.949, 1.108e-4
0.948, 1.106e-4
0.947, 1.104e-4
0.946, 1.104e-4
0.945, 1.100e-4
0.944, 1.100e-4
0.943, 1.098e-4
0.942, 1.095e-4
0.941, 1.095e-4
0.940, 1.093e-4
0.939, 1.091e-4
0.938, 1.091e-4
0.937, 1.088e-4
0.936, 1.088e-4
0.935, 1.086e-4
0.934, 1.084e-4
0.933, 1.084e-4
0.932, 1.080e-4
0.931, 1.079e-4
0.930, 1.078e-4
0.929, 1.077e-4
0.928, 1.076e-4
0.927, 1.074e-4
0.926, 1.072e-4
0.925, 1.072e-4
0.924, 1.069e-4
0.923, 1.068e-4
0.922, 1.066e-4
0.921, 1.065e-4
0.920, 1.065e-4
0.919, 1.063e-4
0.918, 1.062e-4
0.917, 1.061e-4
0.916, 1.059e-4
0.915, 1.056e-4
0.914, 1.057e-4
0.913, 1.055e-4
0.912, 1.054e-4
0.911, 1.052e-4
0.910, 1.051e-4
0.909, 1.052e-4
0.908, 1.048e-4
0.907, 1.047e-4
0.906, 1.045e-4
0.905, 1.044e-4
0.904, 1.044e-4
0.903, 1.042e-4
0.902, 1.041e-4
0.901, 1.040e-4
0.900, 1.039e-4
0.899, 1.036e-4
0.898, 1.036e-4
0.897, 1.034e-4
0.896, 1.034e-4
0.895, 1.032e-4
0.894, 1.031e-4
0.893, 1.031e-4
0.892, 1.029e-4
0.891, 1.026e-4
0.890, 1.027e-4
0.889, 1.024e-4
0.888, 1.025e-4
0.887, 1.023e-4
0.886, 1.021e-4
0.885, 1.021e-4
0.884, 1.019e-4
0.883, 1.018e-4
0.882, 1.016e-4
0.881, 1.016e-4
0.880, 1.016e-4
0.879, 1.013e-4
0.878, 1.012e-4
0.877, 1.012e-4
0.876, 1.010e-4
0.875, 1.008e-4
0.874, 1.008e-4
0.873, 1.007e-4
0.872, 1.006e-4
0.871, 1.005e-4
0.870, 1.003e-4
0.869, 1.003e-4
0.868, 1.000e-4
0.867, 1.000e-4
0.866, 9.986e-5
0.865, 9.983e-5
0.864, 9.968e-5
0.863, 9.968e-5
0.862, 9.931e-5
0.861, 9.952e-5
0.860, 9.919e-5
0.859, 9.919e-5
0.858, 9.916e-5
0.857, 9.894e-5
0.856, 9.888e-5
0.855, 9.876e-5
0.854, 9.858e-5
0.853, 9.858e-5
0.852, 9.843e-5
0.851, 9.831e-5
0.850, 9.818e-5
0.849, 9.815e-5
0.848, 9.800e-5
0.847, 9.803e-5
0.846, 9.770e-5
0.845, 9.757e-5
0.844, 9.754e-5
0.843, 9.767e-5
0.842, 9.739e-5
0.841, 9.733e-5
0.840, 9.724e-5
0.839, 9.721e-5
0.838, 9.697e-5
0.837, 9.693e-5
0.836, 9.681e-5
0.835, 9.681e-5
0.834, 9.672e-5
0.833, 9.654e-5
0.832, 9.666e-5
0.831, 9.636e-5
0.830, 9.617e-5
0.829, 9.620e-5
0.828, 9.608e-5
0.827, 9.608e-5
0.826, 9.593e-5
0.825, 9.587e-5
0.824, 9.584e-5
0.823, 9.569e-5
0.822, 9.553e-5
0.821, 9.547e-5
0.820, 9.529e-5
0.819, 9.550e-5
0.818, 9.517e-5
0.817, 9.520e-5
0.816, 9.511e-5
0.815, 9.492e-5
0.814, 9.477e-5
0.813, 9.480e-5
0.812, 9.471e-5
0.811, 9.471e-5
0.810, 9.453e-5
0.809, 9.438e-5
0.808, 9.447e-5
0.807, 9.432e-5
0.806, 9.404e-5
0.805, 9.407e-5
0.804, 9.404e-5
0.803, 9.389e-5
0.802, 9.386e-5
0.801, 9.377e-5
0.800, 9.374e-5
0.799, 9.365e-5
0.798, 9.343e-5
0.797, 9.337e-5
0.796, 9.337e-5
0.795, 9.328e-5
0.794, 9.298e-5
0.793, 9.295e-5
0.792, 9.310e-5
0.791, 9.292e-5
0.790, 9.282e-5
0.789, 9.276e-5
0.788, 9.264e-5
0.787, 9.261e-5
0.786, 9.255e-5
0.785, 9.234e-5
0.784, 9.243e-5
0.783, 9.225e-5
0.782, 9.221e-5
0.781, 9.221e-5
0.780, 9.206e-5
0.779, 9.194e-5
0.778, 9.191e-5
0.777, 9.167e-5
0.776, 9.182e-5
0.775, 9.167e-5
0.774, 9.151e-5
0.773, 9.154e-5
0.772, 9.136e-5
0.771, 9.148e-5
0.770, 9.124e-5
0.769, 9.112e-5
0.768, 9.118e-5
0.767, 9.100e-5
0.766, 9.100e-5
0.765, 9.081e-5
0.764, 9.087e-5
0.763, 9.078e-5
0.762, 9.063e-5
0.761, 9.045e-5
0.760, 9.048e-5
0.759, 9.036e-5
0.758, 9.030e-5
0.757, 9.030e-5
0.756, 9.017e-5
0.755, 9.033e-5
0.754, 9.002e-5
0.753, 8.996e-5
0.752, 8.987e-5
0.751, 8.981e-5
0.750, 8.978e-5
0.749, 8.966e-5
0.748, 8.966e-5
0.747, 8.963e-5
0.746, 8.944e-5
0.745, 8.929e-5
0.744, 8.929e-5
0.743, 8.908e-5
0.742, 8.923e-5
0.741, 8.908e-5
0.740, 8.902e-5
0.739, 8.896e-5
0.738, 8.886e-5
0.737, 8.877e-5
0.736, 8.868e-5
0.735, 8.862e-5
0.734, 8.862e-5
0.733, 8.847e-5
0.732, 8.841e-5
0.731, 8.847e-5
0.730, 8.841e-5
0.729, 8.823e-5
0.728, 8.810e-5
0.727, 8.804e-5
0.726, 8.798e-5
0.725, 8.795e-5
0.724, 8.792e-5
0.723, 8.792e-5
0.722, 8.771e-5
0.721, 8.762e-5
0.720, 8.752e-5
0.719, 8.749e-5
0.718, 8.743e-5
0.717, 8.725e-5
0.716, 8.722e-5
0.715, 8.728e-5
0.714, 8.719e-5
0.713, 8.707e-5
0.712, 8.701e-5
0.711, 8.692e-5
0.710, 8.689e-5
0.709, 8.679e-5
0.708, 8.661e-5
0.707, 8.673e-5
0.706, 8.661e-5
0.705, 8.652e-5
0.704, 8.652e-5
0.703, 8.643e-5
0.702, 8.631e-5
0.701, 8.618e-5
0.700, 8.600e-5
0.699, 8.603e-5
0.698, 8.603e-5
0.697, 8.594e-5
0.696, 8.582e-5
0.695, 8.582e-5
0.694, 8.567e-5
0.693, 8.567e-5
0.692, 8.551e-5
0.691, 8.542e-5
0.690, 8.548e-5
0.689, 8.536e-5
0.688, 8.524e-5
0.687, 8.530e-5
0.686, 8.515e-5
0.685, 8.506e-5
0.684, 8.500e-5
0.683, 8.494e-5
0.682, 8.488e-5
0.681, 8.484e-5
0.680, 8.475e-5
0.679, 8.481e-5
0.678, 8.457e-5
0.677, 8.448e-5
0.676, 8.433e-5
0.675, 8.427e-5
0.674, 8.433e-5
0.673, 8.430e-5
0.672, 8.417e-5
0.671, 8.417e-5
0.670, 8.402e-5
0.669, 8.393e-5
0.668, 8.378e-5
0.667, 8.369e-5
0.666, 8.372e-5
0.665, 8.363e-5
0.664, 8.357e-5
0.663, 8.350e-5
0.662, 8.341e-5
0.661, 8.326e-5
0.660, 8.317e-5
0.659, 8.308e-5
0.658, 8.293e-5
0.657, 8.302e-5
0.656, 8.287e-5
0.655, 8.274e-5
0.654, 8.280e-5
0.653, 8.271e-5
0.652, 8.247e-5
0.651, 8.235e-5
0.650, 8.238e-5
0.649, 8.223e-5
0.648, 8.216e-5
0.647, 8.210e-5
0.646, 8.204e-5
0.645, 8.189e-5
0.644, 8.177e-5
0.643, 8.168e-5
0.642, 8.159e-5
0.641, 8.156e-5
0.640, 8.131e-5
0.639, 8.125e-5
0.638, 8.128e-5
0.637, 8.107e-5
0.636, 8.101e-5
0.635, 8.079e-5
0.634, 8.079e-5
0.633, 8.061e-5
0.632, 8.049e-5
0.631, 8.043e-5
0.630, 8.034e-5
0.629, 8.012e-5
0.628, 8.015e-5
0.627, 7.991e-5
0.626, 7.985e-5
0.625, 7.970e-5
0.624, 7.967e-5
0.623, 7.933e-5
0.622, 7.930e-5
0.621, 7.915e-5
0.620, 7.915e-5
0.619, 7.888e-5
0.618, 7.875e-5
0.617, 7.866e-5
0.616, 7.845e-5
0.615, 7.839e-5
0.614, 7.808e-5
0.613, 7.793e-5
0.612, 7.778e-5
0.611, 7.763e-5
0.610, 7.741e-5
0.609, 7.729e-5
0.608, 7.705e-5
0.607, 7.677e-5
0.606, 7.662e-5
0.605, 7.644e-5
0.604, 7.626e-5
0.603, 7.601e-5
0.602, 7.598e-5
0.601, 7.565e-5
0.600, 7.540e-5
0.599, 7.501e-5
0.598, 7.476e-5
0.597, 7.461e-5
0.596, 7.434e-5
0.595, 7.413e-5
0.594, 7.388e-5
0.593, 7.358e-5
0.592, 7.318e-5
0.591, 7.294e-5
0.590, 7.260e-5
0.589, 7.205e-5
0.588, 7.199e-5
0.587, 7.166e-5
0.586, 7.132e-5
0.585, 7.096e-5
0.584, 7.053e-5
0.583, 7.004e-5
0.582, 6.971e-5
0.581, 6.928e-5
0.580, 6.892e-5
0.579, 6.846e-5
0.578, 6.800e-5
0.577, 6.755e-5
0.576, 6.718e-5
0.575, 6.657e-5
0.574, 6.596e-5
0.573, 6.548e-5
0.572, 6.502e-5
0.571, 6.441e-5
0.570, 6.377e-5
0.569, 6.322e-5
0.568, 6.255e-5
0.567, 6.182e-5
0.566, 6.118e-5
0.565, 6.054e-5
0.564, 5.981e-5
0.563, 5.914e-5
0.562, 5.829e-5
0.561, 5.753e-5
0.560, 5.658e-5
0.559, 5.585e-5
0.558, 5.488e-5
0.557, 5.406e-5
0.556, 5.308e-5
0.555, 5.208e-5
0.554, 5.101e-5
0.553, 5.010e-5
0.552, 4.897e-5
0.551, 4.800e-5
0.550, 4.663e-5
0.549, 4.562e-5
0.548, 4.452e-5
0.547, 4.285e-5
0.546, 4.157e-5
0.545, 4.023e-5
0.544, 3.886e-5
0.543, 3.731e-5
0.542, 3.578e-5
0.541, 3.438e-5
0.540, 3.274e-5
0.539, 3.067e-5
0.538, 2.860e-5
0.537, 2.765e-5
0.536, 2.525e-5
0.535, 2.345e-5
0.534, 2.138e-5
0.533, 1.940e-5
0.532, 1.751e-5
0.531, 1.532e-5
0.530, 1.310e-5
0.529, 1.075e-5
0.528, 8.315e-6
0.527, 5.787e-6
0.526, 3.260e-6
0.525, 1.311e-6
0.524, -1.948e-6
0.523, -4.628e-6
0.522, -7.490e-6
0.521, -1.038e-5
0.520, -1.343e-5
0.519, -1.663e-5
0.518, -1.970e-5
0.517, -2.272e-5
0.516, -2.662e-5
0.515, -2.969e-5
0.514, -3.371e-5
0.513, -3.648e-5
0.512, -4.212e-5
0.511, -4.477e-5
0.510, -4.912e-5
0.509, -5.198e-5
0.508, -5.707e-5
0.507, -6.054e-5
0.506, -6.538e-5
0.505, -6.870e-5
0.504, -7.458e-5
0.503, -7.839e-5
0.502, -8.289e-5
0.501, -8.737e-5
0.500, -9.243e-5
0.499, -9.553e-5
0.498, -1.029e-4
0.497, -1.054e-4
0.496, -1.121e-4
0.495, -1.172e-4
0.494, -1.216e-4
0.493, -1.281e-4
0.492, -1.309e-4
0.491, -1.386e-4
0.490, -1.426e-4
0.489, -1.467e-4
0.488, -1.543e-4
0.487, -1.584e-4
0.486, -1.661e-4
0.485, -1.696e-4
0.484, -1.729e-4
0.483, -1.811e-4
0.482, -1.852e-4
0.481, -1.882e-4
0.480, -1.963e-4
0.479, -1.990e-4
0.478, -2.042e-4
0.477, -2.112e-4
0.476, -2.115e-4
0.475, -2.194e-4
0.474, -2.240e-4
0.473, -2.226e-4
0.472, -2.330e-4
0.471, -2.361e-4
0.470, -2.375e-4
0.469, -2.450e-4
0.468, -2.463e-4
0.467, -2.503e-4
0.466, -2.556e-4
0.465, -2.564e-4
0.464, -2.624e-4
0.463, -2.640e-4
0.462, -2.660e-4
0.461, -2.714e-4
0.460, -2.707e-4
0.459, -2.752e-4
0.458, -2.786e-4
0.457, -2.782e-4
0.456, -2.828e-4
0.455, -2.831e-4
0.454, -2.850e-4
0.453, -2.880e-4
0.452, -2.873e-4
0.451, -2.905e-4
0.450, -2.910e-4
0.449, -2.921e-4
0.448, -2.917e-4
0.447, -2.938e-4
0.446, -2.946e-4
0.445, -2.954e-4
0.444, -2.953e-4
0.443, -2.965e-4
0.442, -2.964e-4
0.441, -2.963e-4
0.440, -2.973e-4
0.439, -2.965e-4
0.438, -2.965e-4
0.437, -2.963e-4
0.436, -2.951e-4
0.435, -2.972e-4
0.434, -2.950e-4
0.433, -2.947e-4
0.432, -2.937e-4
0.431, -2.926e-4
0.430, -2.923e-4
0.429, -2.908e-4
0.428, -2.901e-4
0.427, -2.892e-4
0.426, -2.879e-4
0.425, -2.866e-4
0.424, -2.853e-4
0.423, -2.839e-4
0.422, -2.822e-4
0.421, -2.811e-4
0.420, -2.797e-4
0.419, -2.783e-4
0.418, -2.765e-4
0.417, -2.755e-4
0.416, -2.733e-4
0.415, -2.719e-4
0.414, -2.704e-4
0.413, -2.685e-4
0.412, -2.671e-4
0.411, -2.649e-4
0.410, -2.617e-4
0.409, -2.611e-4
0.408, -2.592e-4
0.407, -2.574e-4
0.406, -2.561e-4
0.405, -2.543e-4
0.404, -2.523e-4
0.403, -2.504e-4
0.402, -2.487e-4
0.401, -2.473e-4
0.400, -2.452e-4
0.399, -2.433e-4
0.398, -2.418e-4
0.397, -2.393e-4
0.396, -2.380e-4
0.395, -2.362e-4
0.394, -2.343e-4
0.393, -2.327e-4
0.392, -2.306e-4
0.391, -2.290e-4
0.390, -2.273e-4
0.389, -2.255e-4
0.388, -2.238e-4
0.387, -2.219e-4
0.386, -2.202e-4
0.385, -2.186e-4
0.384, -2.173e-4
0.383, -2.152e-4
0.382, -2.137e-4
0.381, -2.119e-4
0.380, -2.104e-4
0.379, -2.086e-4
0.378, -2.069e-4
0.377, -2.056e-4
0.376, -2.040e-4
0.375, -2.023e-4
0.374, -2.008e-4
0.373, -1.992e-4
0.372, -1.978e-4
0.371, -1.961e-4
0.370, -1.946e-4
0.369, -1.933e-4
0.368, -1.919e-4
0.367, -1.904e-4
0.366, -1.891e-4
0.365, -1.875e-4
0.364, -1.863e-4
0.363, -1.848e-4
0.362, -1.835e-4
0.361, -1.823e-4
0.360, -1.809e-4
0.359, -1.796e-4
0.358, -1.783e-4
0.357, -1.771e-4
0.356, -1.759e-4
0.355, -1.746e-4
0.354, -1.733e-4
0.353, -1.722e-4
0.352, -1.710e-4
0.351, -1.699e-4
0.350, -1.687e-4
0.349, -1.675e-4
0.348, -1.665e-4
0.347, -1.654e-4
0.346, -1.640e-4
0.345, -1.632e-4
0.344, -1.620e-4
0.343, -1.611e-4
0.342, -1.600e-4
0.341, -1.590e-4
0.340, -1.580e-4
0.339, -1.570e-4
0.338, -1.560e-4
0.337, -1.551e-4
0.336, -1.540e-4
0.335, -1.531e-4
0.334, -1.522e-4
0.333, -1.514e-4
0.332, -1.505e-4
0.331, -1.496e-4
0.330, -1.486e-4
0.329, -1.478e-4
0.328, -1.468e-4
0.327, -1.461e-4
0.326, -1.452e-4
0.325, -1.443e-4
0.324, -1.435e-4
0.323, -1.429e-4
0.322, -1.419e-4
0.321, -1.412e-4
0.320, -1.402e-4
0.319, -1.396e-4
0.318, -1.388e-4
0.317, -1.380e-4
0.316, -1.374e-4
0.315, -1.367e-4
0.314, -1.359e-4
0.313, -1.352e-4
0.312, -1.345e-4
0.311, -1.338e-4
0.310, -1.332e-4
0.309, -1.324e-4
0.308, -1.318e-4
0.307, -1.312e-4
0.306, -1.305e-4
0.305, -1.299e-4
0.304, -1.292e-4
0.303, -1.286e-4
0.302, -1.281e-4
0.301, -1.273e-4
0.300, -1.268e-4
0.299, -1.262e-4
0.298, -1.257e-4
0.297, -1.251e-4
0.296, -1.244e-4
0.295, -1.238e-4
0.294, -1.234e-4
0.293, -1.226e-4
0.292, -1.222e-4
0.291, -1.217e-4
0.290, -1.211e-4
0.289, -1.206e-4
0.288, -1.200e-4
0.287, -1.196e-4
0.286, -1.191e-4
0.285, -1.185e-4
0.284, -1.180e-4
0.283, -1.175e-4
0.282, -1.172e-4
0.281, -1.166e-4
0.280, -1.160e-4
0.279, -1.156e-4
0.278, -1.152e-4
0.277, -1.146e-4
0.276, -1.143e-4
0.275, -1.137e-4
0.274, -1.133e-4
0.273, -1.128e-4
0.272, -1.124e-4
0.271, -1.120e-4
0.270, -1.116e-4
0.269, -1.110e-4
0.268, -1.107e-4
0.267, -1.102e-4
0.266, -1.098e-4
0.265, -1.094e-4
0.264, -1.090e-4
0.263, -1.086e-4
0.262, -1.083e-4
0.261, -1.078e-4
0.260, -1.074e-4
0.259, -1.070e-4
0.258, -1.066e-4
0.257, -1.063e-4
0.256, -1.058e-4
0.255, -1.055e-4
0.254, -1.052e-4
0.253, -1.048e-4
0.252, -1.045e-4
0.251, -1.040e-4
0.250, -1.037e-4
0.249, -1.033e-4
0.248, -1.030e-4
0.247, -1.026e-4
0.246, -1.024e-4
0.245, -1.020e-4
0.244, -1.017e-4
0.243, -1.013e-4
0.242, -1.010e-4
0.241, -1.006e-4
0.240, -1.002e-4
0.239, -1.000e-4
0.238, -9.970e-5
0.237, -9.934e-5
0.236, -9.906e-5
0.235, -9.873e-5
0.234, -9.842e-5
0.233, -9.809e-5
0.232, -9.772e-5
0.231, -9.760e-5
0.230, -9.721e-5
0.229, -9.693e-5
0.228, -9.663e-5
0.227, -9.632e-5
0.226, -9.608e-5
0.225, -9.574e-5
0.224, -9.535e-5
0.223, -9.523e-5
0.222, -9.492e-5
0.221, -9.465e-5
0.220, -9.440e-5
0.219, -9.416e-5
0.218, -9.367e-5
0.217, -9.355e-5
0.216, -9.319e-5
0.215, -9.294e-5
0.214, -9.273e-5
0.213, -9.243e-5
0.212, -9.221e-5
0.211, -9.194e-5
0.210, -9.169e-5
0.209, -9.151e-5
0.208, -9.109e-5
0.207, -9.087e-5
0.206, -9.063e-5
0.205, -9.020e-5
0.204, -9.011e-5
0.203, -8.990e-5
0.202, -8.962e-5
0.201, -8.944e-5
0.200, -8.917e-5
0.199, -8.895e-5
0.198, -8.871e-5
0.197, -8.850e-5
0.196, -8.822e-5
0.195, -8.801e-5
0.194, -8.774e-5
0.193, -8.764e-5
0.192, -8.716e-5
0.191, -8.707e-5
0.190, -8.679e-5
0.189, -8.661e-5
0.188, -8.643e-5
0.187, -8.615e-5
0.186, -8.597e-5
0.185, -8.579e-5
0.184, -8.548e-5
0.183, -8.530e-5
0.182, -8.512e-5
0.181, -8.487e-5
0.180, -8.466e-5
0.179, -8.445e-5
0.178, -8.432e-5
0.177, -8.411e-5
0.176, -8.390e-5
0.175, -8.365e-5
0.174, -8.347e-5
0.173, -8.323e-5
0.172, -8.302e-5
0.171, -8.280e-5
0.170, -8.259e-5
0.169, -8.253e-5
0.168, -8.222e-5
0.167, -8.198e-5
0.166, -8.186e-5
0.165, -8.168e-5
0.164, -8.140e-5
0.163, -8.113e-5
0.162, -8.104e-5
0.161, -8.094e-5
0.160, -8.067e-5
0.159, -8.049e-5
0.158, -8.030e-5
0.157, -8.006e-5
0.156, -7.997e-5
0.155, -7.967e-5
0.154, -7.948e-5
0.153, -7.936e-5
0.152, -7.918e-5
0.151, -7.896e-5
0.150, -7.881e-5
0.149, -7.863e-5
0.148, -7.851e-5
0.147, -7.823e-5
0.146, -7.808e-5
0.145, -7.790e-5
0.144, -7.778e-5
0.143, -7.756e-5
0.142, -7.744e-5
0.141, -7.714e-5
0.140, -7.711e-5
0.139, -7.680e-5
0.138, -7.668e-5
0.137, -7.650e-5
0.136, -7.641e-5
0.135, -7.619e-5
0.134, -7.604e-5
0.133, -7.586e-5
0.132, -7.574e-5
0.131, -7.552e-5
0.130, -7.534e-5
0.129, -7.513e-5
0.128, -7.519e-5
0.127, -7.491e-5
0.126, -7.473e-5
0.125, -7.455e-5
0.124, -7.449e-5
0.123, -7.424e-5
0.122, -7.406e-5
0.121, -7.388e-5
0.120, -7.373e-5
0.119, -7.364e-5
0.118, -7.342e-5
0.117, -7.330e-5
0.116, -7.321e-5
0.115, -7.290e-5
0.114, -7.278e-5
0.113, -7.263e-5
0.112, -7.251e-5
0.111, -7.236e-5
0.110, -7.217e-5
0.109, -7.208e-5
0.108, -7.193e-5
0.107, -7.178e-5
0.106, -7.166e-5
0.105, -7.144e-5
0.104, -7.135e-5
0.103, -7.120e-5
0.102, -7.093e-5
0.101, -7.089e-5
0.100, -7.077e-5
0.099, -7.068e-5
0.098, -7.050e-5
0.097, -7.032e-5
0.096, -7.019e-5
0.095, -6.998e-5
0.094, -6.986e-5
0.093, -6.977e-5
0.092, -6.965e-5
0.091, -6.952e-5
0.090, -6.928e-5
0.089, -6.913e-5
0.088, -6.907e-5
0.087, -6.888e-5
0.086, -6.873e-5
0.085, -6.867e-5
0.084, -6.852e-5
0.083, -6.843e-5
0.082, -6.828e-5
0.081, -6.818e-5
0.080, -6.800e-5
0.079, -6.791e-5
0.078, -6.773e-5
0.077, -6.779e-5
0.076, -6.758e-5
0.075, -6.745e-5
0.074, -6.724e-5
0.073, -6.718e-5
0.072, -6.700e-5
0.071, -6.691e-5
0.070, -6.672e-5
0.069, -6.669e-5
0.068, -6.648e-5
0.067, -6.642e-5
0.066, -6.630e-5
0.065, -6.617e-5
0.064, -6.596e-5
0.063, -6.596e-5
0.062, -6.581e-5
0.061, -6.569e-5
0.060, -6.547e-5
0.059, -6.547e-5
0.058, -6.529e-5
0.057, -6.526e-5
0.056, -6.511e-5
0.055, -6.502e-5
0.054, -6.493e-5
0.053, -6.480e-5
0.052, -6.459e-5
0.051, -6.456e-5
0.050, -6.441e-5
0.049, -6.432e-5
0.048, -6.419e-5
0.047, -6.416e-5
0.046, -6.401e-5
0.045, -6.389e-5
0.044, -6.374e-5
0.043, -6.371e-5
0.042, -6.356e-5
0.041, -6.337e-5
0.040, -6.337e-5
0.039, -6.328e-5
0.038, -6.319e-5
0.037, -6.301e-5
0.036, -6.295e-5
0.035, -6.285e-5
0.034, -6.270e-5
0.033, -6.258e-5
0.032, -6.252e-5
0.031, -6.252e-5
0.030, -6.234e-5
0.029, -6.222e-5
0.028, -6.215e-5
0.027, -6.203e-5
0.026, -6.203e-5
0.025, -6.182e-5
0.024, -6.179e-5
0.023, -6.173e-5
0.022, -6.158e-5
0.021, -6.148e-5
0.020, -6.139e-5
0.019, -6.130e-5
0.018, -6.112e-5
0.017, -6.103e-5
0.016, -6.100e-5
0.015, -6.091e-5
0.014, -6.088e-5
0.013, -6.063e-5
0.012, -6.060e-5
0.011, -6.063e-5
0.010, -6.048e-5
0.009, -6.036e-5
0.008, -6.027e-5
0.007, -6.021e-5
0.006, -6.017e-5
0.005, -6.002e-5
0.004, -5.993e-5
0.003, -5.990e-5
0.002, -5.972e-5
0.001, -5.963e-5
