May 7, 2026   15:46:24
Cyclic Voltammetry
File: mecn_co2_0.1mtbapf6_3mmfc_1mmfe-tpypy2me_-1.2_to_1v_100mvs
Data Source:  Experiment
Instrument Model:  CHI660D
Header: 
Note: 

Init E (V) = 0
High E (V) = 1
Low E (V) = -1.2
Final E (V) = 0
Init P/N = N
Scan Rate (V/s) = 0.1
Segment = 3
Sample Interval (V) = 0.001
Quiet Time (sec) = 2
Sensitivity (A/V) = 1e-4
Comp R (ohm) = 100.8

Results:

Channel 1:
Segment 1:
Ep = -1.009V
ip = -4.607e-5A
Ah = -4.391e-5C

Segment 2:
Ep = -0.896V
ip = 3.824e-5A
Ah = 3.901e-5C

Ep = 0.497V
ip = 1.388e-4A
Ah = 8.699e-5C

Segment 3:
Ep = 0.435V
ip = -1.473e-4A
Ah = -9.422e-5C

Potential/V, Current/A

0.000, -2.037e-6
-0.001, -2.159e-6
-0.002, -2.219e-6
-0.003, -2.256e-6
-0.004, -2.293e-6
-0.005, -2.319e-6
-0.006, -2.339e-6
-0.007, -2.365e-6
-0.008, -2.388e-6
-0.009, -2.405e-6
-0.010, -2.418e-6
-0.011, -2.435e-6
-0.012, -2.451e-6
-0.013, -2.464e-6
-0.014, -2.476e-6
-0.015, -2.493e-6
-0.016, -2.510e-6
-0.017, -2.522e-6
-0.018, -2.533e-6
-0.019, -2.543e-6
-0.020, -2.558e-6
-0.021, -2.568e-6
-0.022, -2.574e-6
-0.023, -2.590e-6
-0.024, -2.601e-6
-0.025, -2.621e-6
-0.026, -2.627e-6
-0.027, -2.634e-6
-0.028, -2.647e-6
-0.029, -2.654e-6
-0.030, -2.662e-6
-0.031, -2.675e-6
-0.032, -2.684e-6
-0.033, -2.695e-6
-0.034, -2.700e-6
-0.035, -2.712e-6
-0.036, -2.726e-6
-0.037, -2.734e-6
-0.038, -2.733e-6
-0.039, -2.751e-6
-0.040, -2.759e-6
-0.041, -2.769e-6
-0.042, -2.778e-6
-0.043, -2.785e-6
-0.044, -2.796e-6
-0.045, -2.804e-6
-0.046, -2.809e-6
-0.047, -2.822e-6
-0.048, -2.829e-6
-0.049, -2.838e-6
-0.050, -2.848e-6
-0.051, -2.852e-6
-0.052, -2.868e-6
-0.053, -2.872e-6
-0.054, -2.878e-6
-0.055, -2.893e-6
-0.056, -2.902e-6
-0.057, -2.910e-6
-0.058, -2.916e-6
-0.059, -2.924e-6
-0.060, -2.934e-6
-0.061, -2.946e-6
-0.062, -2.950e-6
-0.063, -2.960e-6
-0.064, -2.962e-6
-0.065, -2.979e-6
-0.066, -2.985e-6
-0.067, -2.992e-6
-0.068, -3.005e-6
-0.069, -3.018e-6
-0.070, -3.019e-6
-0.071, -3.029e-6
-0.072, -3.038e-6
-0.073, -3.046e-6
-0.074, -3.055e-6
-0.075, -3.063e-6
-0.076, -3.081e-6
-0.077, -3.089e-6
-0.078, -3.094e-6
-0.079, -3.100e-6
-0.080, -3.111e-6
-0.081, -3.120e-6
-0.082, -3.128e-6
-0.083, -3.134e-6
-0.084, -3.149e-6
-0.085, -3.155e-6
-0.086, -3.162e-6
-0.087, -3.171e-6
-0.088, -3.180e-6
-0.089, -3.188e-6
-0.090, -3.196e-6
-0.091, -3.203e-6
-0.092, -3.217e-6
-0.093, -3.225e-6
-0.094, -3.235e-6
-0.095, -3.244e-6
-0.096, -3.251e-6
-0.097, -3.261e-6
-0.098, -3.267e-6
-0.099, -3.273e-6
-0.100, -3.285e-6
-0.101, -3.295e-6
-0.102, -3.312e-6
-0.103, -3.316e-6
-0.104, -3.323e-6
-0.105, -3.332e-6
-0.106, -3.343e-6
-0.107, -3.348e-6
-0.108, -3.362e-6
-0.109, -3.367e-6
-0.110, -3.374e-6
-0.111, -3.384e-6
-0.112, -3.392e-6
-0.113, -3.403e-6
-0.114, -3.408e-6
-0.115, -3.410e-6
-0.116, -3.426e-6
-0.117, -3.437e-6
-0.118, -3.441e-6
-0.119, -3.454e-6
-0.120, -3.463e-6
-0.121, -3.473e-6
-0.122, -3.484e-6
-0.123, -3.486e-6
-0.124, -3.499e-6
-0.125, -3.510e-6
-0.126, -3.515e-6
-0.127, -3.524e-6
-0.128, -3.540e-6
-0.129, -3.545e-6
-0.130, -3.551e-6
-0.131, -3.561e-6
-0.132, -3.572e-6
-0.133, -3.578e-6
-0.134, -3.582e-6
-0.135, -3.593e-6
-0.136, -3.604e-6
-0.137, -3.616e-6
-0.138, -3.621e-6
-0.139, -3.628e-6
-0.140, -3.637e-6
-0.141, -3.640e-6
-0.142, -3.652e-6
-0.143, -3.664e-6
-0.144, -3.671e-6
-0.145, -3.684e-6
-0.146, -3.695e-6
-0.147, -3.701e-6
-0.148, -3.711e-6
-0.149, -3.720e-6
-0.150, -3.730e-6
-0.151, -3.737e-6
-0.152, -3.746e-6
-0.153, -3.753e-6
-0.154, -3.762e-6
-0.155, -3.768e-6
-0.156, -3.780e-6
-0.157, -3.787e-6
-0.158, -3.792e-6
-0.159, -3.804e-6
-0.160, -3.817e-6
-0.161, -3.825e-6
-0.162, -3.830e-6
-0.163, -3.836e-6
-0.164, -3.851e-6
-0.165, -3.862e-6
-0.166, -3.857e-6
-0.167, -3.872e-6
-0.168, -3.882e-6
-0.169, -3.891e-6
-0.170, -3.901e-6
-0.171, -3.906e-6
-0.172, -3.922e-6
-0.173, -3.922e-6
-0.174, -3.930e-6
-0.175, -3.947e-6
-0.176, -3.951e-6
-0.177, -3.960e-6
-0.178, -3.969e-6
-0.179, -3.990e-6
-0.180, -3.996e-6
-0.181, -4.002e-6
-0.182, -4.007e-6
-0.183, -4.015e-6
-0.184, -4.024e-6
-0.185, -4.031e-6
-0.186, -4.039e-6
-0.187, -4.045e-6
-0.188, -4.056e-6
-0.189, -4.064e-6
-0.190, -4.068e-6
-0.191, -4.076e-6
-0.192, -4.076e-6
-0.193, -4.088e-6
-0.194, -4.098e-6
-0.195, -4.106e-6
-0.196, -4.115e-6
-0.197, -4.122e-6
-0.198, -4.131e-6
-0.199, -4.138e-6
-0.200, -4.149e-6
-0.201, -4.159e-6
-0.202, -4.165e-6
-0.203, -4.172e-6
-0.204, -4.172e-6
-0.205, -4.174e-6
-0.206, -4.190e-6
-0.207, -4.207e-6
-0.208, -4.214e-6
-0.209, -4.222e-6
-0.210, -4.230e-6
-0.211, -4.239e-6
-0.212, -4.249e-6
-0.213, -4.256e-6
-0.214, -4.260e-6
-0.215, -4.271e-6
-0.216, -4.276e-6
-0.217, -4.278e-6
-0.218, -4.293e-6
-0.219, -4.298e-6
-0.220, -4.315e-6
-0.221, -4.321e-6
-0.222, -4.326e-6
-0.223, -4.336e-6
-0.224, -4.343e-6
-0.225, -4.355e-6
-0.226, -4.361e-6
-0.227, -4.367e-6
-0.228, -4.379e-6
-0.229, -4.386e-6
-0.230, -4.404e-6
-0.231, -4.405e-6
-0.232, -4.413e-6
-0.233, -4.420e-6
-0.234, -4.432e-6
-0.235, -4.436e-6
-0.236, -4.445e-6
-0.237, -4.452e-6
-0.238, -4.454e-6
-0.239, -4.464e-6
-0.240, -4.475e-6
-0.241, -4.482e-6
-0.242, -4.487e-6
-0.243, -4.483e-6
-0.244, -4.500e-6
-0.245, -4.511e-6
-0.246, -4.512e-6
-0.247, -4.522e-6
-0.248, -4.535e-6
-0.249, -4.536e-6
-0.250, -4.549e-6
-0.251, -4.553e-6
-0.252, -4.569e-6
-0.253, -4.570e-6
-0.254, -4.574e-6
-0.255, -4.588e-6
-0.256, -4.592e-6
-0.257, -4.601e-6
-0.258, -4.609e-6
-0.259, -4.612e-6
-0.260, -4.626e-6
-0.261, -4.633e-6
-0.262, -4.639e-6
-0.263, -4.647e-6
-0.264, -4.655e-6
-0.265, -4.665e-6
-0.266, -4.669e-6
-0.267, -4.678e-6
-0.268, -4.690e-6
-0.269, -4.688e-6
-0.270, -4.701e-6
-0.271, -4.705e-6
-0.272, -4.718e-6
-0.273, -4.723e-6
-0.274, -4.729e-6
-0.275, -4.732e-6
-0.276, -4.749e-6
-0.277, -4.751e-6
-0.278, -4.755e-6
-0.279, -4.761e-6
-0.280, -4.772e-6
-0.281, -4.787e-6
-0.282, -4.789e-6
-0.283, -4.793e-6
-0.284, -4.803e-6
-0.285, -4.805e-6
-0.286, -4.811e-6
-0.287, -4.821e-6
-0.288, -4.825e-6
-0.289, -4.834e-6
-0.290, -4.843e-6
-0.291, -4.843e-6
-0.292, -4.854e-6
-0.293, -4.862e-6
-0.294, -4.852e-6
-0.295, -4.867e-6
-0.296, -4.873e-6
-0.297, -4.878e-6
-0.298, -4.886e-6
-0.299, -4.887e-6
-0.300, -4.899e-6
-0.301, -4.907e-6
-0.302, -4.912e-6
-0.303, -4.918e-6
-0.304, -4.924e-6
-0.305, -4.933e-6
-0.306, -4.937e-6
-0.307, -4.953e-6
-0.308, -4.954e-6
-0.309, -4.959e-6
-0.310, -4.963e-6
-0.311, -4.969e-6
-0.312, -4.974e-6
-0.313, -4.974e-6
-0.314, -4.984e-6
-0.315, -4.988e-6
-0.316, -4.996e-6
-0.317, -4.999e-6
-0.318, -5.001e-6
-0.319, -5.009e-6
-0.320, -5.003e-6
-0.321, -5.016e-6
-0.322, -5.023e-6
-0.323, -5.025e-6
-0.324, -5.032e-6
-0.325, -5.042e-6
-0.326, -5.039e-6
-0.327, -5.046e-6
-0.328, -5.051e-6
-0.329, -5.059e-6
-0.330, -5.064e-6
-0.331, -5.062e-6
-0.332, -5.078e-6
-0.333, -5.087e-6
-0.334, -5.083e-6
-0.335, -5.091e-6
-0.336, -5.094e-6
-0.337, -5.098e-6
-0.338, -5.100e-6
-0.339, -5.101e-6
-0.340, -5.111e-6
-0.341, -5.111e-6
-0.342, -5.116e-6
-0.343, -5.123e-6
-0.344, -5.131e-6
-0.345, -5.126e-6
-0.346, -5.126e-6
-0.347, -5.136e-6
-0.348, -5.144e-6
-0.349, -5.143e-6
-0.350, -5.149e-6
-0.351, -5.153e-6
-0.352, -5.159e-6
-0.353, -5.170e-6
-0.354, -5.171e-6
-0.355, -5.168e-6
-0.356, -5.176e-6
-0.357, -5.182e-6
-0.358, -5.180e-6
-0.359, -5.188e-6
-0.360, -5.193e-6
-0.361, -5.202e-6
-0.362, -5.199e-6
-0.363, -5.201e-6
-0.364, -5.212e-6
-0.365, -5.212e-6
-0.366, -5.213e-6
-0.367, -5.218e-6
-0.368, -5.223e-6
-0.369, -5.223e-6
-0.370, -5.234e-6
-0.371, -5.218e-6
-0.372, -5.238e-6
-0.373, -5.238e-6
-0.374, -5.240e-6
-0.375, -5.247e-6
-0.376, -5.249e-6
-0.377, -5.251e-6
-0.378, -5.255e-6
-0.379, -5.258e-6
-0.380, -5.266e-6
-0.381, -5.267e-6
-0.382, -5.268e-6
-0.383, -5.276e-6
-0.384, -5.295e-6
-0.385, -5.285e-6
-0.386, -5.289e-6
-0.387, -5.290e-6
-0.388, -5.299e-6
-0.389, -5.304e-6
-0.390, -5.300e-6
-0.391, -5.306e-6
-0.392, -5.311e-6
-0.393, -5.313e-6
-0.394, -5.314e-6
-0.395, -5.320e-6
-0.396, -5.324e-6
-0.397, -5.321e-6
-0.398, -5.326e-6
-0.399, -5.330e-6
-0.400, -5.338e-6
-0.401, -5.342e-6
-0.402, -5.342e-6
-0.403, -5.342e-6
-0.404, -5.352e-6
-0.405, -5.359e-6
-0.406, -5.352e-6
-0.407, -5.358e-6
-0.408, -5.364e-6
-0.409, -5.336e-6
-0.410, -5.350e-6
-0.411, -5.361e-6
-0.412, -5.369e-6
-0.413, -5.375e-6
-0.414, -5.375e-6
-0.415, -5.382e-6
-0.416, -5.386e-6
-0.417, -5.393e-6
-0.418, -5.390e-6
-0.419, -5.391e-6
-0.420, -5.404e-6
-0.421, -5.405e-6
-0.422, -5.392e-6
-0.423, -5.406e-6
-0.424, -5.409e-6
-0.425, -5.415e-6
-0.426, -5.418e-6
-0.427, -5.421e-6
-0.428, -5.428e-6
-0.429, -5.427e-6
-0.430, -5.433e-6
-0.431, -5.441e-6
-0.432, -5.438e-6
-0.433, -5.441e-6
-0.434, -5.443e-6
-0.435, -5.462e-6
-0.436, -5.458e-6
-0.437, -5.459e-6
-0.438, -5.459e-6
-0.439, -5.463e-6
-0.440, -5.469e-6
-0.441, -5.466e-6
-0.442, -5.473e-6
-0.443, -5.474e-6
-0.444, -5.480e-6
-0.445, -5.483e-6
-0.446, -5.482e-6
-0.447, -5.488e-6
-0.448, -5.480e-6
-0.449, -5.491e-6
-0.450, -5.497e-6
-0.451, -5.493e-6
-0.452, -5.499e-6
-0.453, -5.505e-6
-0.454, -5.504e-6
-0.455, -5.510e-6
-0.456, -5.515e-6
-0.457, -5.515e-6
-0.458, -5.522e-6
-0.459, -5.517e-6
-0.460, -5.528e-6
-0.461, -5.528e-6
-0.462, -5.529e-6
-0.463, -5.533e-6
-0.464, -5.536e-6
-0.465, -5.541e-6
-0.466, -5.540e-6
-0.467, -5.546e-6
-0.468, -5.548e-6
-0.469, -5.554e-6
-0.470, -5.554e-6
-0.471, -5.560e-6
-0.472, -5.564e-6
-0.473, -5.557e-6
-0.474, -5.562e-6
-0.475, -5.567e-6
-0.476, -5.572e-6
-0.477, -5.577e-6
-0.478, -5.576e-6
-0.479, -5.578e-6
-0.480, -5.584e-6
-0.481, -5.585e-6
-0.482, -5.584e-6
-0.483, -5.589e-6
-0.484, -5.597e-6
-0.485, -5.600e-6
-0.486, -5.604e-6
-0.487, -5.610e-6
-0.488, -5.609e-6
-0.489, -5.611e-6
-0.490, -5.611e-6
-0.491, -5.612e-6
-0.492, -5.620e-6
-0.493, -5.622e-6
-0.494, -5.622e-6
-0.495, -5.626e-6
-0.496, -5.628e-6
-0.497, -5.634e-6
-0.498, -5.635e-6
-0.499, -5.625e-6
-0.500, -5.638e-6
-0.501, -5.640e-6
-0.502, -5.641e-6
-0.503, -5.645e-6
-0.504, -5.649e-6
-0.505, -5.654e-6
-0.506, -5.655e-6
-0.507, -5.654e-6
-0.508, -5.663e-6
-0.509, -5.661e-6
-0.510, -5.665e-6
-0.511, -5.667e-6
-0.512, -5.684e-6
-0.513, -5.676e-6
-0.514, -5.678e-6
-0.515, -5.677e-6
-0.516, -5.685e-6
-0.517, -5.686e-6
-0.518, -5.683e-6
-0.519, -5.689e-6
-0.520, -5.692e-6
-0.521, -5.694e-6
-0.522, -5.698e-6
-0.523, -5.696e-6
-0.524, -5.699e-6
-0.525, -5.697e-6
-0.526, -5.701e-6
-0.527, -5.705e-6
-0.528, -5.709e-6
-0.529, -5.710e-6
-0.530, -5.711e-6
-0.531, -5.708e-6
-0.532, -5.717e-6
-0.533, -5.720e-6
-0.534, -5.714e-6
-0.535, -5.717e-6
-0.536, -5.721e-6
-0.537, -5.735e-6
-0.538, -5.734e-6
-0.539, -5.726e-6
-0.540, -5.735e-6
-0.541, -5.732e-6
-0.542, -5.734e-6
-0.543, -5.735e-6
-0.544, -5.737e-6
-0.545, -5.741e-6
-0.546, -5.743e-6
-0.547, -5.742e-6
-0.548, -5.746e-6
-0.549, -5.745e-6
-0.550, -5.736e-6
-0.551, -5.748e-6
-0.552, -5.750e-6
-0.553, -5.751e-6
-0.554, -5.753e-6
-0.555, -5.753e-6
-0.556, -5.757e-6
-0.557, -5.760e-6
-0.558, -5.758e-6
-0.559, -5.762e-6
-0.560, -5.765e-6
-0.561, -5.763e-6
-0.562, -5.768e-6
-0.563, -5.765e-6
-0.564, -5.769e-6
-0.565, -5.773e-6
-0.566, -5.773e-6
-0.567, -5.779e-6
-0.568, -5.780e-6
-0.569, -5.777e-6
-0.570, -5.779e-6
-0.571, -5.777e-6
-0.572, -5.785e-6
-0.573, -5.783e-6
-0.574, -5.782e-6
-0.575, -5.787e-6
-0.576, -5.781e-6
-0.577, -5.789e-6
-0.578, -5.791e-6
-0.579, -5.799e-6
-0.580, -5.795e-6
-0.581, -5.795e-6
-0.582, -5.797e-6
-0.583, -5.799e-6
-0.584, -5.801e-6
-0.585, -5.807e-6
-0.586, -5.805e-6
-0.587, -5.801e-6
-0.588, -5.815e-6
-0.589, -5.816e-6
-0.590, -5.815e-6
-0.591, -5.811e-6
-0.592, -5.820e-6
-0.593, -5.819e-6
-0.594, -5.817e-6
-0.595, -5.818e-6
-0.596, -5.824e-6
-0.597, -5.824e-6
-0.598, -5.820e-6
-0.599, -5.825e-6
-0.600, -5.828e-6
-0.601, -5.819e-6
-0.602, -5.827e-6
-0.603, -5.824e-6
-0.604, -5.835e-6
-0.605, -5.835e-6
-0.606, -5.830e-6
-0.607, -5.839e-6
-0.608, -5.839e-6
-0.609, -5.839e-6
-0.610, -5.842e-6
-0.611, -5.840e-6
-0.612, -5.850e-6
-0.613, -5.846e-6
-0.614, -5.825e-6
-0.615, -5.839e-6
-0.616, -5.842e-6
-0.617, -5.850e-6
-0.618, -5.850e-6
-0.619, -5.849e-6
-0.620, -5.857e-6
-0.621, -5.858e-6
-0.622, -5.855e-6
-0.623, -5.862e-6
-0.624, -5.861e-6
-0.625, -5.865e-6
-0.626, -5.868e-6
-0.627, -5.859e-6
-0.628, -5.867e-6
-0.629, -5.872e-6
-0.630, -5.870e-6
-0.631, -5.876e-6
-0.632, -5.879e-6
-0.633, -5.876e-6
-0.634, -5.878e-6
-0.635, -5.882e-6
-0.636, -5.886e-6
-0.637, -5.891e-6
-0.638, -5.885e-6
-0.639, -5.891e-6
-0.640, -5.905e-6
-0.641, -5.901e-6
-0.642, -5.899e-6
-0.643, -5.901e-6
-0.644, -5.904e-6
-0.645, -5.907e-6
-0.646, -5.904e-6
-0.647, -5.912e-6
-0.648, -5.915e-6
-0.649, -5.918e-6
-0.650, -5.914e-6
-0.651, -5.918e-6
-0.652, -5.918e-6
-0.653, -5.916e-6
-0.654, -5.920e-6
-0.655, -5.930e-6
-0.656, -5.931e-6
-0.657, -5.935e-6
-0.658, -5.936e-6
-0.659, -5.935e-6
-0.660, -5.943e-6
-0.661, -5.945e-6
-0.662, -5.947e-6
-0.663, -5.946e-6
-0.664, -5.953e-6
-0.665, -5.955e-6
-0.666, -5.956e-6
-0.667, -5.961e-6
-0.668, -5.963e-6
-0.669, -5.969e-6
-0.670, -5.972e-6
-0.671, -5.975e-6
-0.672, -5.980e-6
-0.673, -5.988e-6
-0.674, -5.987e-6
-0.675, -5.984e-6
-0.676, -5.992e-6
-0.677, -5.999e-6
-0.678, -5.997e-6
-0.679, -6.002e-6
-0.680, -6.004e-6
-0.681, -6.011e-6
-0.682, -6.017e-6
-0.683, -6.018e-6
-0.684, -6.026e-6
-0.685, -6.029e-6
-0.686, -6.034e-6
-0.687, -6.044e-6
-0.688, -6.044e-6
-0.689, -6.052e-6
-0.690, -6.052e-6
-0.691, -6.067e-6
-0.692, -6.071e-6
-0.693, -6.075e-6
-0.694, -6.075e-6
-0.695, -6.082e-6
-0.696, -6.088e-6
-0.697, -6.094e-6
-0.698, -6.096e-6
-0.699, -6.104e-6
-0.700, -6.112e-6
-0.701, -6.113e-6
-0.702, -6.121e-6
-0.703, -6.134e-6
-0.704, -6.128e-6
-0.705, -6.139e-6
-0.706, -6.143e-6
-0.707, -6.154e-6
-0.708, -6.160e-6
-0.709, -6.166e-6
-0.710, -6.172e-6
-0.711, -6.181e-6
-0.712, -6.187e-6
-0.713, -6.192e-6
-0.714, -6.200e-6
-0.715, -6.204e-6
-0.716, -6.220e-6
-0.717, -6.232e-6
-0.718, -6.229e-6
-0.719, -6.242e-6
-0.720, -6.250e-6
-0.721, -6.254e-6
-0.722, -6.264e-6
-0.723, -6.267e-6
-0.724, -6.284e-6
-0.725, -6.295e-6
-0.726, -6.298e-6
-0.727, -6.313e-6
-0.728, -6.320e-6
-0.729, -6.319e-6
-0.730, -6.330e-6
-0.731, -6.344e-6
-0.732, -6.358e-6
-0.733, -6.366e-6
-0.734, -6.373e-6
-0.735, -6.389e-6
-0.736, -6.399e-6
-0.737, -6.411e-6
-0.738, -6.423e-6
-0.739, -6.432e-6
-0.740, -6.449e-6
-0.741, -6.457e-6
-0.742, -6.480e-6
-0.743, -6.486e-6
-0.744, -6.496e-6
-0.745, -6.510e-6
-0.746, -6.526e-6
-0.747, -6.539e-6
-0.748, -6.556e-6
-0.749, -6.567e-6
-0.750, -6.579e-6
-0.751, -6.598e-6
-0.752, -6.615e-6
-0.753, -6.631e-6
-0.754, -6.648e-6
-0.755, -6.654e-6
-0.756, -6.683e-6
-0.757, -6.698e-6
-0.758, -6.711e-6
-0.759, -6.731e-6
-0.760, -6.755e-6
-0.761, -6.777e-6
-0.762, -6.793e-6
-0.763, -6.813e-6
-0.764, -6.833e-6
-0.765, -6.856e-6
-0.766, -6.881e-6
-0.767, -6.906e-6
-0.768, -6.924e-6
-0.769, -6.950e-6
-0.770, -6.976e-6
-0.771, -6.998e-6
-0.772, -7.029e-6
-0.773, -7.053e-6
-0.774, -7.075e-6
-0.775, -7.107e-6
-0.776, -7.136e-6
-0.777, -7.170e-6
-0.778, -7.190e-6
-0.779, -7.222e-6
-0.780, -7.249e-6
-0.781, -7.276e-6
-0.782, -7.312e-6
-0.783, -7.340e-6
-0.784, -7.373e-6
-0.785, -7.408e-6
-0.786, -7.440e-6
-0.787, -7.464e-6
-0.788, -7.510e-6
-0.789, -7.542e-6
-0.790, -7.572e-6
-0.791, -7.612e-6
-0.792, -7.649e-6
-0.793, -7.687e-6
-0.794, -7.728e-6
-0.795, -7.762e-6
-0.796, -7.802e-6
-0.797, -7.841e-6
-0.798, -7.886e-6
-0.799, -7.928e-6
-0.800, -7.962e-6
-0.801, -8.012e-6
-0.802, -8.050e-6
-0.803, -8.094e-6
-0.804, -8.149e-6
-0.805, -8.196e-6
-0.806, -8.232e-6
-0.807, -8.285e-6
-0.808, -8.343e-6
-0.809, -8.388e-6
-0.810, -8.444e-6
-0.811, -8.495e-6
-0.812, -8.565e-6
-0.813, -8.619e-6
-0.814, -8.678e-6
-0.815, -8.743e-6
-0.816, -8.806e-6
-0.817, -8.884e-6
-0.818, -8.948e-6
-0.819, -8.984e-6
-0.820, -9.074e-6
-0.821, -9.148e-6
-0.822, -9.231e-6
-0.823, -9.310e-6
-0.824, -9.399e-6
-0.825, -9.476e-6
-0.826, -9.567e-6
-0.827, -9.656e-6
-0.828, -9.759e-6
-0.829, -9.846e-6
-0.830, -9.943e-6
-0.831, -1.004e-5
-0.832, -1.012e-5
-0.833, -1.024e-5
-0.834, -1.036e-5
-0.835, -1.046e-5
-0.836, -1.059e-5
-0.837, -1.072e-5
-0.838, -1.084e-5
-0.839, -1.097e-5
-0.840, -1.111e-5
-0.841, -1.124e-5
-0.842, -1.137e-5
-0.843, -1.151e-5
-0.844, -1.168e-5
-0.845, -1.186e-5
-0.846, -1.200e-5
-0.847, -1.217e-5
-0.848, -1.233e-5
-0.849, -1.249e-5
-0.850, -1.267e-5
-0.851, -1.283e-5
-0.852, -1.303e-5
-0.853, -1.322e-5
-0.854, -1.341e-5
-0.855, -1.360e-5
-0.856, -1.381e-5
-0.857, -1.401e-5
-0.858, -1.420e-5
-0.859, -1.444e-5
-0.860, -1.468e-5
-0.861, -1.491e-5
-0.862, -1.515e-5
-0.863, -1.540e-5
-0.864, -1.563e-5
-0.865, -1.588e-5
-0.866, -1.614e-5
-0.867, -1.641e-5
-0.868, -1.669e-5
-0.869, -1.698e-5
-0.870, -1.725e-5
-0.871, -1.752e-5
-0.872, -1.782e-5
-0.873, -1.812e-5
-0.874, -1.843e-5
-0.875, -1.873e-5
-0.876, -1.904e-5
-0.877, -1.935e-5
-0.878, -1.966e-5
-0.879, -2.001e-5
-0.880, -2.033e-5
-0.881, -2.067e-5
-0.882, -2.099e-5
-0.883, -2.128e-5
-0.884, -2.167e-5
-0.885, -2.204e-5
-0.886, -2.236e-5
-0.887, -2.276e-5
-0.888, -2.312e-5
-0.889, -2.350e-5
-0.890, -2.384e-5
-0.891, -2.422e-5
-0.892, -2.463e-5
-0.893, -2.501e-5
-0.894, -2.540e-5
-0.895, -2.576e-5
-0.896, -2.625e-5
-0.897, -2.662e-5
-0.898, -2.699e-5
-0.899, -2.734e-5
-0.900, -2.776e-5
-0.901, -2.816e-5
-0.902, -2.853e-5
-0.903, -2.900e-5
-0.904, -2.936e-5
-0.905, -2.972e-5
-0.906, -3.012e-5
-0.907, -3.044e-5
-0.908, -3.088e-5
-0.909, -3.119e-5
-0.910, -3.158e-5
-0.911, -3.202e-5
-0.912, -3.243e-5
-0.913, -3.281e-5
-0.914, -3.314e-5
-0.915, -3.354e-5
-0.916, -3.393e-5
-0.917, -3.429e-5
-0.918, -3.461e-5
-0.919, -3.501e-5
-0.920, -3.534e-5
-0.921, -3.579e-5
-0.922, -3.615e-5
-0.923, -3.642e-5
-0.924, -3.680e-5
-0.925, -3.712e-5
-0.926, -3.746e-5
-0.927, -3.780e-5
-0.928, -3.810e-5
-0.929, -3.845e-5
-0.930, -3.875e-5
-0.931, -3.907e-5
-0.932, -3.940e-5
-0.933, -3.969e-5
-0.934, -3.995e-5
-0.935, -4.025e-5
-0.936, -4.060e-5
-0.937, -4.090e-5
-0.938, -4.117e-5
-0.939, -4.155e-5
-0.940, -4.183e-5
-0.941, -4.207e-5
-0.942, -4.243e-5
-0.943, -4.270e-5
-0.944, -4.297e-5
-0.945, -4.329e-5
-0.946, -4.359e-5
-0.947, -4.392e-5
-0.948, -4.420e-5
-0.949, -4.448e-5
-0.950, -4.472e-5
-0.951, -4.505e-5
-0.952, -4.531e-5
-0.953, -4.559e-5
-0.954, -4.585e-5
-0.955, -4.612e-5
-0.956, -4.645e-5
-0.957, -4.670e-5
-0.958, -4.703e-5
-0.959, -4.734e-5
-0.960, -4.745e-5
-0.961, -4.782e-5
-0.962, -4.816e-5
-0.963, -4.839e-5
-0.964, -4.880e-5
-0.965, -4.906e-5
-0.966, -4.933e-5
-0.967, -4.960e-5
-0.968, -4.988e-5
-0.969, -5.024e-5
-0.970, -5.049e-5
-0.971, -5.077e-5
-0.972, -5.104e-5
-0.973, -5.129e-5
-0.974, -5.160e-5
-0.975, -5.190e-5
-0.976, -5.219e-5
-0.977, -5.249e-5
-0.978, -5.274e-5
-0.979, -5.298e-5
-0.980, -5.330e-5
-0.981, -5.357e-5
-0.982, -5.384e-5
-0.983, -5.401e-5
-0.984, -5.429e-5
-0.985, -5.450e-5
-0.986, -5.471e-5
-0.987, -5.490e-5
-0.988, -5.517e-5
-0.989, -5.546e-5
-0.990, -5.566e-5
-0.991, -5.586e-5
-0.992, -5.604e-5
-0.993, -5.621e-5
-0.994, -5.639e-5
-0.995, -5.648e-5
-0.996, -5.670e-5
-0.997, -5.686e-5
-0.998, -5.709e-5
-0.999, -5.721e-5
-1.000, -5.727e-5
-1.001, -5.741e-5
-1.002, -5.745e-5
-1.003, -5.752e-5
-1.004, -5.766e-5
-1.005, -5.768e-5
-1.006, -5.769e-5
-1.007, -5.783e-5
-1.008, -5.782e-5
-1.009, -5.788e-5
-1.010, -5.785e-5
-1.011, -5.773e-5
-1.012, -5.782e-5
-1.013, -5.782e-5
-1.014, -5.776e-5
-1.015, -5.769e-5
-1.016, -5.765e-5
-1.017, -5.765e-5
-1.018, -5.754e-5
-1.019, -5.747e-5
-1.020, -5.742e-5
-1.021, -5.733e-5
-1.022, -5.724e-5
-1.023, -5.713e-5
-1.024, -5.678e-5
-1.025, -5.682e-5
-1.026, -5.670e-5
-1.027, -5.657e-5
-1.028, -5.648e-5
-1.029, -5.633e-5
-1.030, -5.616e-5
-1.031, -5.601e-5
-1.032, -5.586e-5
-1.033, -5.570e-5
-1.034, -5.554e-5
-1.035, -5.536e-5
-1.036, -5.518e-5
-1.037, -5.497e-5
-1.038, -5.480e-5
-1.039, -5.463e-5
-1.040, -5.441e-5
-1.041, -5.425e-5
-1.042, -5.403e-5
-1.043, -5.383e-5
-1.044, -5.366e-5
-1.045, -5.344e-5
-1.046, -5.323e-5
-1.047, -5.303e-5
-1.048, -5.284e-5
-1.049, -5.269e-5
-1.050, -5.246e-5
-1.051, -5.223e-5
-1.052, -5.204e-5
-1.053, -5.182e-5
-1.054, -5.160e-5
-1.055, -5.140e-5
-1.056, -5.119e-5
-1.057, -5.101e-5
-1.058, -5.079e-5
-1.059, -5.058e-5
-1.060, -5.036e-5
-1.061, -5.017e-5
-1.062, -4.992e-5
-1.063, -4.975e-5
-1.064, -4.955e-5
-1.065, -4.936e-5
-1.066, -4.915e-5
-1.067, -4.895e-5
-1.068, -4.876e-5
-1.069, -4.858e-5
-1.070, -4.837e-5
-1.071, -4.819e-5
-1.072, -4.800e-5
-1.073, -4.781e-5
-1.074, -4.762e-5
-1.075, -4.742e-5
-1.076, -4.725e-5
-1.077, -4.707e-5
-1.078, -4.687e-5
-1.079, -4.671e-5
-1.080, -4.652e-5
-1.081, -4.634e-5
-1.082, -4.617e-5
-1.083, -4.599e-5
-1.084, -4.585e-5
-1.085, -4.567e-5
-1.086, -4.550e-5
-1.087, -4.534e-5
-1.088, -4.515e-5
-1.089, -4.501e-5
-1.090, -4.485e-5
-1.091, -4.470e-5
-1.092, -4.455e-5
-1.093, -4.440e-5
-1.094, -4.424e-5
-1.095, -4.410e-5
-1.096, -4.395e-5
-1.097, -4.381e-5
-1.098, -4.367e-5
-1.099, -4.352e-5
-1.100, -4.340e-5
-1.101, -4.327e-5
-1.102, -4.312e-5
-1.103, -4.298e-5
-1.104, -4.285e-5
-1.105, -4.271e-5
-1.106, -4.258e-5
-1.107, -4.244e-5
-1.108, -4.233e-5
-1.109, -4.221e-5
-1.110, -4.207e-5
-1.111, -4.195e-5
-1.112, -4.183e-5
-1.113, -4.170e-5
-1.114, -4.159e-5
-1.115, -4.147e-5
-1.116, -4.137e-5
-1.117, -4.125e-5
-1.118, -4.114e-5
-1.119, -4.103e-5
-1.120, -4.092e-5
-1.121, -4.081e-5
-1.122, -4.070e-5
-1.123, -4.059e-5
-1.124, -4.050e-5
-1.125, -4.039e-5
-1.126, -4.030e-5
-1.127, -4.019e-5
-1.128, -4.010e-5
-1.129, -4.000e-5
-1.130, -3.990e-5
-1.131, -3.980e-5
-1.132, -3.971e-5
-1.133, -3.962e-5
-1.134, -3.953e-5
-1.135, -3.943e-5
-1.136, -3.935e-5
-1.137, -3.925e-5
-1.138, -3.916e-5
-1.139, -3.906e-5
-1.140, -3.898e-5
-1.141, -3.890e-5
-1.142, -3.881e-5
-1.143, -3.874e-5
-1.144, -3.866e-5
-1.145, -3.857e-5
-1.146, -3.849e-5
-1.147, -3.842e-5
-1.148, -3.835e-5
-1.149, -3.826e-5
-1.150, -3.819e-5
-1.151, -3.811e-5
-1.152, -3.805e-5
-1.153, -3.797e-5
-1.154, -3.789e-5
-1.155, -3.782e-5
-1.156, -3.775e-5
-1.157, -3.768e-5
-1.158, -3.761e-5
-1.159, -3.754e-5
-1.160, -3.747e-5
-1.161, -3.741e-5
-1.162, -3.734e-5
-1.163, -3.727e-5
-1.164, -3.721e-5
-1.165, -3.714e-5
-1.166, -3.708e-5
-1.167, -3.703e-5
-1.168, -3.696e-5
-1.169, -3.691e-5
-1.170, -3.685e-5
-1.171, -3.678e-5
-1.172, -3.673e-5
-1.173, -3.667e-5
-1.174, -3.662e-5
-1.175, -3.656e-5
-1.176, -3.650e-5
-1.177, -3.645e-5
-1.178, -3.639e-5
-1.179, -3.634e-5
-1.180, -3.629e-5
-1.181, -3.624e-5
-1.182, -3.618e-5
-1.183, -3.613e-5
-1.184, -3.608e-5
-1.185, -3.603e-5
-1.186, -3.598e-5
-1.187, -3.593e-5
-1.188, -3.588e-5
-1.189, -3.583e-5
-1.190, -3.577e-5
-1.191, -3.573e-5
-1.192, -3.568e-5
-1.193, -3.564e-5
-1.194, -3.559e-5
-1.195, -3.554e-5
-1.196, -3.550e-5
-1.197, -3.545e-5
-1.198, -3.541e-5
-1.199, -3.536e-5
-1.200, -3.494e-5
-1.199, -3.461e-5
-1.198, -3.443e-5
-1.197, -3.428e-5
-1.196, -3.413e-5
-1.195, -3.399e-5
-1.194, -3.388e-5
-1.193, -3.376e-5
-1.192, -3.364e-5
-1.191, -3.354e-5
-1.190, -3.343e-5
-1.189, -3.333e-5
-1.188, -3.323e-5
-1.187, -3.313e-5
-1.186, -3.304e-5
-1.185, -3.294e-5
-1.184, -3.285e-5
-1.183, -3.276e-5
-1.182, -3.267e-5
-1.181, -3.258e-5
-1.180, -3.250e-5
-1.179, -3.241e-5
-1.178, -3.233e-5
-1.177, -3.225e-5
-1.176, -3.217e-5
-1.175, -3.209e-5
-1.174, -3.202e-5
-1.173, -3.194e-5
-1.172, -3.186e-5
-1.171, -3.178e-5
-1.170, -3.170e-5
-1.169, -3.164e-5
-1.168, -3.156e-5
-1.167, -3.149e-5
-1.166, -3.142e-5
-1.165, -3.135e-5
-1.164, -3.127e-5
-1.163, -3.120e-5
-1.162, -3.114e-5
-1.161, -3.107e-5
-1.160, -3.100e-5
-1.159, -3.093e-5
-1.158, -3.086e-5
-1.157, -3.080e-5
-1.156, -3.073e-5
-1.155, -3.067e-5
-1.154, -3.061e-5
-1.153, -3.054e-5
-1.152, -3.046e-5
-1.151, -3.041e-5
-1.150, -3.034e-5
-1.149, -3.028e-5
-1.148, -3.022e-5
-1.147, -3.015e-5
-1.146, -3.010e-5
-1.145, -3.003e-5
-1.144, -2.997e-5
-1.143, -2.990e-5
-1.142, -2.984e-5
-1.141, -2.979e-5
-1.140, -2.972e-5
-1.139, -2.967e-5
-1.138, -2.960e-5
-1.137, -2.954e-5
-1.136, -2.948e-5
-1.135, -2.941e-5
-1.134, -2.935e-5
-1.133, -2.930e-5
-1.132, -2.923e-5
-1.131, -2.917e-5
-1.130, -2.911e-5
-1.129, -2.905e-5
-1.128, -2.899e-5
-1.127, -2.892e-5
-1.126, -2.886e-5
-1.125, -2.880e-5
-1.124, -2.873e-5
-1.123, -2.867e-5
-1.122, -2.861e-5
-1.121, -2.854e-5
-1.120, -2.849e-5
-1.119, -2.841e-5
-1.118, -2.835e-5
-1.117, -2.829e-5
-1.116, -2.822e-5
-1.115, -2.815e-5
-1.114, -2.810e-5
-1.113, -2.803e-5
-1.112, -2.795e-5
-1.111, -2.788e-5
-1.110, -2.782e-5
-1.109, -2.775e-5
-1.108, -2.767e-5
-1.107, -2.760e-5
-1.106, -2.753e-5
-1.105, -2.745e-5
-1.104, -2.738e-5
-1.103, -2.730e-5
-1.102, -2.722e-5
-1.101, -2.714e-5
-1.100, -2.706e-5
-1.099, -2.699e-5
-1.098, -2.691e-5
-1.097, -2.683e-5
-1.096, -2.674e-5
-1.095, -2.665e-5
-1.094, -2.657e-5
-1.093, -2.649e-5
-1.092, -2.639e-5
-1.091, -2.629e-5
-1.090, -2.621e-5
-1.089, -2.610e-5
-1.088, -2.603e-5
-1.087, -2.592e-5
-1.086, -2.583e-5
-1.085, -2.572e-5
-1.084, -2.562e-5
-1.083, -2.550e-5
-1.082, -2.541e-5
-1.081, -2.530e-5
-1.080, -2.519e-5
-1.079, -2.507e-5
-1.078, -2.494e-5
-1.077, -2.483e-5
-1.076, -2.470e-5
-1.075, -2.457e-5
-1.074, -2.446e-5
-1.073, -2.433e-5
-1.072, -2.420e-5
-1.071, -2.404e-5
-1.070, -2.391e-5
-1.069, -2.378e-5
-1.068, -2.362e-5
-1.067, -2.346e-5
-1.066, -2.332e-5
-1.065, -2.316e-5
-1.064, -2.299e-5
-1.063, -2.285e-5
-1.062, -2.268e-5
-1.061, -2.250e-5
-1.060, -2.231e-5
-1.059, -2.213e-5
-1.058, -2.193e-5
-1.057, -2.175e-5
-1.056, -2.156e-5
-1.055, -2.135e-5
-1.054, -2.115e-5
-1.053, -2.096e-5
-1.052, -2.072e-5
-1.051, -2.051e-5
-1.050, -2.024e-5
-1.049, -2.004e-5
-1.048, -1.980e-5
-1.047, -1.954e-5
-1.046, -1.930e-5
-1.045, -1.907e-5
-1.044, -1.880e-5
-1.043, -1.853e-5
-1.042, -1.826e-5
-1.041, -1.799e-5
-1.040, -1.772e-5
-1.039, -1.742e-5
-1.038, -1.713e-5
-1.037, -1.690e-5
-1.036, -1.656e-5
-1.035, -1.621e-5
-1.034, -1.591e-5
-1.033, -1.559e-5
-1.032, -1.524e-5
-1.031, -1.489e-5
-1.030, -1.455e-5
-1.029, -1.422e-5
-1.028, -1.380e-5
-1.027, -1.347e-5
-1.026, -1.309e-5
-1.025, -1.273e-5
-1.024, -1.260e-5
-1.023, -1.207e-5
-1.022, -1.164e-5
-1.021, -1.129e-5
-1.020, -1.084e-5
-1.019, -1.043e-5
-1.018, -1.001e-5
-1.017, -9.638e-6
-1.016, -9.230e-6
-1.015, -8.746e-6
-1.014, -8.319e-6
-1.013, -7.910e-6
-1.012, -7.483e-6
-1.011, -7.108e-6
-1.010, -6.619e-6
-1.009, -6.190e-6
-1.008, -5.759e-6
-1.007, -5.287e-6
-1.006, -4.837e-6
-1.005, -4.415e-6
-1.004, -3.948e-6
-1.003, -3.523e-6
-1.002, -3.066e-6
-1.001, -2.658e-6
-1.000, -2.184e-6
-0.999, -1.665e-6
-0.998, -1.195e-6
-0.997, -8.220e-7
-0.996, -3.548e-7
-0.995, 8.061e-8
-0.994, 4.563e-7
-0.993, 9.097e-7
-0.992, 1.271e-6
-0.991, 1.745e-6
-0.990, 2.142e-6
-0.989, 2.548e-6
-0.988, 2.968e-6
-0.987, 3.369e-6
-0.986, 3.687e-6
-0.985, 4.093e-6
-0.984, 4.456e-6
-0.983, 4.886e-6
-0.982, 5.272e-6
-0.981, 5.599e-6
-0.980, 5.965e-6
-0.979, 6.314e-6
-0.978, 6.669e-6
-0.977, 7.015e-6
-0.976, 7.331e-6
-0.975, 7.732e-6
-0.974, 8.044e-6
-0.973, 8.241e-6
-0.972, 8.650e-6
-0.971, 8.965e-6
-0.970, 9.267e-6
-0.969, 9.538e-6
-0.968, 9.797e-6
-0.967, 1.015e-5
-0.966, 1.043e-5
-0.965, 1.066e-5
-0.964, 1.094e-5
-0.963, 1.128e-5
-0.962, 1.151e-5
-0.961, 1.175e-5
-0.960, 1.190e-5
-0.959, 1.225e-5
-0.958, 1.248e-5
-0.957, 1.272e-5
-0.956, 1.300e-5
-0.955, 1.329e-5
-0.954, 1.349e-5
-0.953, 1.373e-5
-0.952, 1.398e-5
-0.951, 1.422e-5
-0.950, 1.449e-5
-0.949, 1.467e-5
-0.948, 1.492e-5
-0.947, 1.532e-5
-0.946, 1.550e-5
-0.945, 1.571e-5
-0.944, 1.586e-5
-0.943, 1.616e-5
-0.942, 1.638e-5
-0.941, 1.661e-5
-0.940, 1.685e-5
-0.939, 1.707e-5
-0.938, 1.734e-5
-0.937, 1.752e-5
-0.936, 1.775e-5
-0.935, 1.799e-5
-0.934, 1.807e-5
-0.933, 1.839e-5
-0.932, 1.863e-5
-0.931, 1.885e-5
-0.930, 1.906e-5
-0.929, 1.934e-5
-0.928, 1.950e-5
-0.927, 1.971e-5
-0.926, 1.999e-5
-0.925, 2.014e-5
-0.924, 2.038e-5
-0.923, 2.058e-5
-0.922, 2.084e-5
-0.921, 2.105e-5
-0.920, 2.117e-5
-0.919, 2.138e-5
-0.918, 2.156e-5
-0.917, 2.168e-5
-0.916, 2.186e-5
-0.915, 2.200e-5
-0.914, 2.213e-5
-0.913, 2.230e-5
-0.912, 2.241e-5
-0.911, 2.262e-5
-0.910, 2.270e-5
-0.909, 2.268e-5
-0.908, 2.289e-5
-0.907, 2.299e-5
-0.906, 2.312e-5
-0.905, 2.319e-5
-0.904, 2.323e-5
-0.903, 2.335e-5
-0.902, 2.340e-5
-0.901, 2.344e-5
-0.900, 2.351e-5
-0.899, 2.352e-5
-0.898, 2.353e-5
-0.897, 2.356e-5
-0.896, 2.366e-5
-0.895, 2.362e-5
-0.894, 2.359e-5
-0.893, 2.355e-5
-0.892, 2.354e-5
-0.891, 2.354e-5
-0.890, 2.346e-5
-0.889, 2.340e-5
-0.888, 2.333e-5
-0.887, 2.326e-5
-0.886, 2.321e-5
-0.885, 2.307e-5
-0.884, 2.298e-5
-0.883, 2.283e-5
-0.882, 2.279e-5
-0.881, 2.268e-5
-0.880, 2.257e-5
-0.879, 2.245e-5
-0.878, 2.233e-5
-0.877, 2.219e-5
-0.876, 2.206e-5
-0.875, 2.193e-5
-0.874, 2.177e-5
-0.873, 2.161e-5
-0.872, 2.147e-5
-0.871, 2.132e-5
-0.870, 2.114e-5
-0.869, 2.098e-5
-0.868, 2.081e-5
-0.867, 2.066e-5
-0.866, 2.049e-5
-0.865, 2.030e-5
-0.864, 2.011e-5
-0.863, 1.997e-5
-0.862, 1.978e-5
-0.861, 1.956e-5
-0.860, 1.942e-5
-0.859, 1.920e-5
-0.858, 1.900e-5
-0.857, 1.881e-5
-0.856, 1.863e-5
-0.855, 1.847e-5
-0.854, 1.826e-5
-0.853, 1.808e-5
-0.852, 1.790e-5
-0.851, 1.771e-5
-0.850, 1.752e-5
-0.849, 1.734e-5
-0.848, 1.716e-5
-0.847, 1.698e-5
-0.846, 1.679e-5
-0.845, 1.663e-5
-0.844, 1.644e-5
-0.843, 1.624e-5
-0.842, 1.605e-5
-0.841, 1.587e-5
-0.840, 1.570e-5
-0.839, 1.552e-5
-0.838, 1.534e-5
-0.837, 1.516e-5
-0.836, 1.499e-5
-0.835, 1.482e-5
-0.834, 1.464e-5
-0.833, 1.447e-5
-0.832, 1.427e-5
-0.831, 1.413e-5
-0.830, 1.397e-5
-0.829, 1.379e-5
-0.828, 1.365e-5
-0.827, 1.349e-5
-0.826, 1.333e-5
-0.825, 1.318e-5
-0.824, 1.302e-5
-0.823, 1.287e-5
-0.822, 1.272e-5
-0.821, 1.257e-5
-0.820, 1.243e-5
-0.819, 1.225e-5
-0.818, 1.213e-5
-0.817, 1.199e-5
-0.816, 1.184e-5
-0.815, 1.171e-5
-0.814, 1.157e-5
-0.813, 1.144e-5
-0.812, 1.131e-5
-0.811, 1.118e-5
-0.810, 1.106e-5
-0.809, 1.092e-5
-0.808, 1.079e-5
-0.807, 1.067e-5
-0.806, 1.055e-5
-0.805, 1.042e-5
-0.804, 1.031e-5
-0.803, 1.019e-5
-0.802, 1.007e-5
-0.801, 9.960e-6
-0.800, 9.838e-6
-0.799, 9.730e-6
-0.798, 9.620e-6
-0.797, 9.510e-6
-0.796, 9.405e-6
-0.795, 9.300e-6
-0.794, 9.205e-6
-0.793, 9.102e-6
-0.792, 8.993e-6
-0.791, 8.896e-6
-0.790, 8.795e-6
-0.789, 8.692e-6
-0.788, 8.599e-6
-0.787, 8.501e-6
-0.786, 8.406e-6
-0.785, 8.314e-6
-0.784, 8.218e-6
-0.783, 8.136e-6
-0.782, 8.043e-6
-0.781, 7.940e-6
-0.780, 7.863e-6
-0.779, 7.784e-6
-0.778, 7.691e-6
-0.777, 7.607e-6
-0.776, 7.525e-6
-0.775, 7.441e-6
-0.774, 7.361e-6
-0.773, 7.286e-6
-0.772, 7.209e-6
-0.771, 7.132e-6
-0.770, 7.052e-6
-0.769, 6.978e-6
-0.768, 6.901e-6
-0.767, 6.829e-6
-0.766, 6.759e-6
-0.765, 6.685e-6
-0.764, 6.619e-6
-0.763, 6.551e-6
-0.762, 6.477e-6
-0.761, 6.412e-6
-0.760, 6.346e-6
-0.759, 6.283e-6
-0.758, 6.216e-6
-0.757, 6.148e-6
-0.756, 6.085e-6
-0.755, 6.019e-6
-0.754, 5.959e-6
-0.753, 5.899e-6
-0.752, 5.839e-6
-0.751, 5.784e-6
-0.750, 5.724e-6
-0.749, 5.664e-6
-0.748, 5.611e-6
-0.747, 5.551e-6
-0.746, 5.494e-6
-0.745, 5.443e-6
-0.744, 5.388e-6
-0.743, 5.339e-6
-0.742, 5.285e-6
-0.741, 5.229e-6
-0.740, 5.176e-6
-0.739, 5.124e-6
-0.738, 5.069e-6
-0.737, 5.019e-6
-0.736, 4.968e-6
-0.735, 4.926e-6
-0.734, 4.877e-6
-0.733, 4.826e-6
-0.732, 4.776e-6
-0.731, 4.734e-6
-0.730, 4.681e-6
-0.729, 4.635e-6
-0.728, 4.590e-6
-0.727, 4.545e-6
-0.726, 4.498e-6
-0.725, 4.452e-6
-0.724, 4.413e-6
-0.723, 4.369e-6
-0.722, 4.324e-6
-0.721, 4.292e-6
-0.720, 4.250e-6
-0.719, 4.207e-6
-0.718, 4.164e-6
-0.717, 4.133e-6
-0.716, 4.086e-6
-0.715, 4.046e-6
-0.714, 4.005e-6
-0.713, 3.966e-6
-0.712, 3.929e-6
-0.711, 3.894e-6
-0.710, 3.854e-6
-0.709, 3.812e-6
-0.708, 3.780e-6
-0.707, 3.742e-6
-0.706, 3.705e-6
-0.705, 3.669e-6
-0.704, 3.628e-6
-0.703, 3.598e-6
-0.702, 3.564e-6
-0.701, 3.528e-6
-0.700, 3.500e-6
-0.699, 3.462e-6
-0.698, 3.426e-6
-0.697, 3.393e-6
-0.696, 3.364e-6
-0.695, 3.334e-6
-0.694, 3.305e-6
-0.693, 3.272e-6
-0.692, 3.245e-6
-0.691, 3.219e-6
-0.690, 3.181e-6
-0.689, 3.157e-6
-0.688, 3.122e-6
-0.687, 3.089e-6
-0.686, 3.063e-6
-0.685, 3.032e-6
-0.684, 3.005e-6
-0.683, 2.979e-6
-0.682, 2.948e-6
-0.681, 2.923e-6
-0.680, 2.892e-6
-0.679, 2.863e-6
-0.678, 2.837e-6
-0.677, 2.810e-6
-0.676, 2.794e-6
-0.675, 2.761e-6
-0.674, 2.735e-6
-0.673, 2.712e-6
-0.672, 2.682e-6
-0.671, 2.661e-6
-0.670, 2.632e-6
-0.669, 2.604e-6
-0.668, 2.584e-6
-0.667, 2.562e-6
-0.666, 2.532e-6
-0.665, 2.508e-6
-0.664, 2.487e-6
-0.663, 2.463e-6
-0.662, 2.443e-6
-0.661, 2.420e-6
-0.660, 2.399e-6
-0.659, 2.374e-6
-0.658, 2.350e-6
-0.657, 2.334e-6
-0.656, 2.310e-6
-0.655, 2.290e-6
-0.654, 2.270e-6
-0.653, 2.236e-6
-0.652, 2.223e-6
-0.651, 2.205e-6
-0.650, 2.183e-6
-0.649, 2.165e-6
-0.648, 2.141e-6
-0.647, 2.120e-6
-0.646, 2.102e-6
-0.645, 2.084e-6
-0.644, 2.065e-6
-0.643, 2.050e-6
-0.642, 2.029e-6
-0.641, 2.011e-6
-0.640, 2.000e-6
-0.639, 1.977e-6
-0.638, 1.959e-6
-0.637, 1.939e-6
-0.636, 1.925e-6
-0.635, 1.908e-6
-0.634, 1.887e-6
-0.633, 1.873e-6
-0.632, 1.858e-6
-0.631, 1.843e-6
-0.630, 1.827e-6
-0.629, 1.810e-6
-0.628, 1.795e-6
-0.627, 1.773e-6
-0.626, 1.760e-6
-0.625, 1.745e-6
-0.624, 1.729e-6
-0.623, 1.716e-6
-0.622, 1.699e-6
-0.621, 1.684e-6
-0.620, 1.667e-6
-0.619, 1.656e-6
-0.618, 1.640e-6
-0.617, 1.624e-6
-0.616, 1.611e-6
-0.615, 1.586e-6
-0.614, 1.581e-6
-0.613, 1.569e-6
-0.612, 1.557e-6
-0.611, 1.547e-6
-0.610, 1.527e-6
-0.609, 1.519e-6
-0.608, 1.504e-6
-0.607, 1.489e-6
-0.606, 1.479e-6
-0.605, 1.464e-6
-0.604, 1.457e-6
-0.603, 1.445e-6
-0.602, 1.426e-6
-0.601, 1.415e-6
-0.600, 1.409e-6
-0.599, 1.396e-6
-0.598, 1.385e-6
-0.597, 1.370e-6
-0.596, 1.364e-6
-0.595, 1.352e-6
-0.594, 1.341e-6
-0.593, 1.330e-6
-0.592, 1.319e-6
-0.591, 1.312e-6
-0.590, 1.298e-6
-0.589, 1.295e-6
-0.588, 1.282e-6
-0.587, 1.270e-6
-0.586, 1.256e-6
-0.585, 1.251e-6
-0.584, 1.238e-6
-0.583, 1.231e-6
-0.582, 1.223e-6
-0.581, 1.214e-6
-0.580, 1.200e-6
-0.579, 1.194e-6
-0.578, 1.184e-6
-0.577, 1.174e-6
-0.576, 1.159e-6
-0.575, 1.151e-6
-0.574, 1.147e-6
-0.573, 1.134e-6
-0.572, 1.131e-6
-0.571, 1.123e-6
-0.570, 1.115e-6
-0.569, 1.108e-6
-0.568, 1.100e-6
-0.567, 1.093e-6
-0.566, 1.085e-6
-0.565, 1.078e-6
-0.564, 1.071e-6
-0.563, 1.062e-6
-0.562, 1.055e-6
-0.561, 1.049e-6
-0.560, 1.039e-6
-0.559, 1.035e-6
-0.558, 1.028e-6
-0.557, 1.016e-6
-0.556, 1.015e-6
-0.555, 1.007e-6
-0.554, 9.994e-7
-0.553, 9.985e-7
-0.552, 9.896e-7
-0.551, 9.829e-7
-0.550, 9.768e-7
-0.549, 9.696e-7
-0.548, 9.662e-7
-0.547, 9.634e-7
-0.546, 9.553e-7
-0.545, 9.499e-7
-0.544, 9.433e-7
-0.543, 9.398e-7
-0.542, 9.331e-7
-0.541, 9.267e-7
-0.540, 9.256e-7
-0.539, 9.190e-7
-0.538, 9.202e-7
-0.537, 9.108e-7
-0.536, 9.057e-7
-0.535, 9.031e-7
-0.534, 8.965e-7
-0.533, 8.904e-7
-0.532, 8.875e-7
-0.531, 8.836e-7
-0.530, 8.785e-7
-0.529, 8.778e-7
-0.528, 8.707e-7
-0.527, 8.686e-7
-0.526, 8.630e-7
-0.525, 8.510e-7
-0.524, 8.567e-7
-0.523, 8.528e-7
-0.522, 8.477e-7
-0.521, 8.432e-7
-0.520, 8.438e-7
-0.519, 8.397e-7
-0.518, 8.359e-7
-0.517, 8.299e-7
-0.516, 8.319e-7
-0.515, 8.309e-7
-0.514, 8.248e-7
-0.513, 8.203e-7
-0.512, 8.251e-7
-0.511, 8.194e-7
-0.510, 8.161e-7
-0.509, 8.089e-7
-0.508, 8.073e-7
-0.507, 8.063e-7
-0.506, 8.034e-7
-0.505, 8.010e-7
-0.504, 7.963e-7
-0.503, 7.965e-7
-0.502, 7.948e-7
-0.501, 7.913e-7
-0.500, 7.904e-7
-0.499, 7.826e-7
-0.498, 7.841e-7
-0.497, 7.811e-7
-0.496, 7.828e-7
-0.495, 7.803e-7
-0.494, 7.790e-7
-0.493, 7.753e-7
-0.492, 7.743e-7
-0.491, 7.759e-7
-0.490, 7.721e-7
-0.489, 7.717e-7
-0.488, 7.712e-7
-0.487, 7.760e-7
-0.486, 7.721e-7
-0.485, 7.664e-7
-0.484, 7.671e-7
-0.483, 7.670e-7
-0.482, 7.625e-7
-0.481, 7.641e-7
-0.480, 7.618e-7
-0.479, 7.614e-7
-0.478, 7.612e-7
-0.477, 7.570e-7
-0.476, 7.584e-7
-0.475, 7.579e-7
-0.474, 7.503e-7
-0.473, 7.544e-7
-0.472, 7.572e-7
-0.471, 7.540e-7
-0.470, 7.529e-7
-0.469, 7.532e-7
-0.468, 7.541e-7
-0.467, 7.532e-7
-0.466, 7.520e-7
-0.465, 7.534e-7
-0.464, 7.500e-7
-0.463, 7.546e-7
-0.462, 7.509e-7
-0.461, 7.473e-7
-0.460, 7.508e-7
-0.459, 7.533e-7
-0.458, 7.497e-7
-0.457, 7.499e-7
-0.456, 7.507e-7
-0.455, 7.501e-7
-0.454, 7.507e-7
-0.453, 7.485e-7
-0.452, 7.507e-7
-0.451, 7.517e-7
-0.450, 7.493e-7
-0.449, 7.490e-7
-0.448, 7.428e-7
-0.447, 7.483e-7
-0.446, 7.506e-7
-0.445, 7.482e-7
-0.444, 7.509e-7
-0.443, 7.518e-7
-0.442, 7.490e-7
-0.441, 7.518e-7
-0.440, 7.515e-7
-0.439, 7.549e-7
-0.438, 7.530e-7
-0.437, 7.512e-7
-0.436, 7.586e-7
-0.435, 7.625e-7
-0.434, 7.562e-7
-0.433, 7.562e-7
-0.432, 7.541e-7
-0.431, 7.600e-7
-0.430, 7.564e-7
-0.429, 7.552e-7
-0.428, 7.625e-7
-0.427, 7.575e-7
-0.426, 7.629e-7
-0.425, 7.619e-7
-0.424, 7.616e-7
-0.423, 7.567e-7
-0.422, 7.607e-7
-0.421, 7.598e-7
-0.420, 7.608e-7
-0.419, 7.641e-7
-0.418, 7.690e-7
-0.417, 7.662e-7
-0.416, 7.682e-7
-0.415, 7.688e-7
-0.414, 7.679e-7
-0.413, 7.686e-7
-0.412, 7.708e-7
-0.411, 7.743e-7
-0.410, 7.498e-7
-0.409, 7.623e-7
-0.408, 7.676e-7
-0.407, 7.738e-7
-0.406, 7.725e-7
-0.405, 7.729e-7
-0.404, 7.744e-7
-0.403, 7.807e-7
-0.402, 7.793e-7
-0.401, 7.804e-7
-0.400, 7.812e-7
-0.399, 7.854e-7
-0.398, 7.865e-7
-0.397, 7.756e-7
-0.396, 7.871e-7
-0.395, 7.869e-7
-0.394, 7.858e-7
-0.393, 7.927e-7
-0.392, 7.917e-7
-0.391, 7.942e-7
-0.390, 7.953e-7
-0.389, 7.951e-7
-0.388, 7.981e-7
-0.387, 7.985e-7
-0.386, 7.968e-7
-0.385, 7.998e-7
-0.384, 8.125e-7
-0.383, 8.074e-7
-0.382, 8.093e-7
-0.381, 8.061e-7
-0.380, 8.137e-7
-0.379, 8.144e-7
-0.378, 8.115e-7
-0.377, 8.137e-7
-0.376, 8.183e-7
-0.375, 8.188e-7
-0.374, 8.186e-7
-0.373, 8.208e-7
-0.372, 8.217e-7
-0.371, 8.200e-7
-0.370, 8.249e-7
-0.369, 8.260e-7
-0.368, 8.296e-7
-0.367, 8.304e-7
-0.366, 8.343e-7
-0.365, 8.346e-7
-0.364, 8.378e-7
-0.363, 8.381e-7
-0.362, 8.373e-7
-0.361, 8.433e-7
-0.360, 8.437e-7
-0.359, 8.441e-7
-0.358, 8.462e-7
-0.357, 8.465e-7
-0.356, 8.520e-7
-0.355, 8.510e-7
-0.354, 8.532e-7
-0.353, 8.582e-7
-0.352, 8.551e-7
-0.351, 8.580e-7
-0.350, 8.609e-7
-0.349, 8.643e-7
-0.348, 8.663e-7
-0.347, 8.670e-7
-0.346, 8.624e-7
-0.345, 8.695e-7
-0.344, 8.699e-7
-0.343, 8.783e-7
-0.342, 8.779e-7
-0.341, 8.776e-7
-0.340, 8.830e-7
-0.339, 8.827e-7
-0.338, 8.844e-7
-0.337, 8.879e-7
-0.336, 8.894e-7
-0.335, 8.911e-7
-0.334, 8.950e-7
-0.333, 9.033e-7
-0.332, 9.029e-7
-0.331, 9.051e-7
-0.330, 9.027e-7
-0.329, 9.068e-7
-0.328, 9.098e-7
-0.327, 9.140e-7
-0.326, 9.144e-7
-0.325, 9.174e-7
-0.324, 9.189e-7
-0.323, 9.210e-7
-0.322, 9.201e-7
-0.321, 9.273e-7
-0.320, 9.217e-7
-0.319, 9.304e-7
-0.318, 9.325e-7
-0.317, 9.345e-7
-0.316, 9.375e-7
-0.315, 9.431e-7
-0.314, 9.420e-7
-0.313, 9.469e-7
-0.312, 9.474e-7
-0.311, 9.516e-7
-0.310, 9.527e-7
-0.309, 9.549e-7
-0.308, 9.635e-7
-0.307, 9.666e-7
-0.306, 9.693e-7
-0.305, 9.683e-7
-0.304, 9.685e-7
-0.303, 9.731e-7
-0.302, 9.764e-7
-0.301, 9.751e-7
-0.300, 9.815e-7
-0.299, 9.855e-7
-0.298, 9.857e-7
-0.297, 9.874e-7
-0.296, 9.908e-7
-0.295, 9.890e-7
-0.294, 9.906e-7
-0.293, 9.954e-7
-0.292, 9.974e-7
-0.291, 1.003e-6
-0.290, 1.006e-6
-0.289, 1.005e-6
-0.288, 1.011e-6
-0.287, 1.016e-6
-0.286, 1.019e-6
-0.285, 1.018e-6
-0.284, 1.025e-6
-0.283, 1.019e-6
-0.282, 1.035e-6
-0.281, 1.035e-6
-0.280, 1.032e-6
-0.279, 1.037e-6
-0.278, 1.042e-6
-0.277, 1.040e-6
-0.276, 1.045e-6
-0.275, 1.050e-6
-0.274, 1.052e-6
-0.273, 1.053e-6
-0.272, 1.056e-6
-0.271, 1.060e-6
-0.270, 1.061e-6
-0.269, 1.058e-6
-0.268, 1.066e-6
-0.267, 1.068e-6
-0.266, 1.071e-6
-0.265, 1.075e-6
-0.264, 1.079e-6
-0.263, 1.083e-6
-0.262, 1.081e-6
-0.261, 1.083e-6
-0.260, 1.087e-6
-0.259, 1.091e-6
-0.258, 1.090e-6
-0.257, 1.097e-6
-0.256, 1.096e-6
-0.255, 1.099e-6
-0.254, 1.106e-6
-0.253, 1.102e-6
-0.252, 1.107e-6
-0.251, 1.111e-6
-0.250, 1.112e-6
-0.249, 1.113e-6
-0.248, 1.116e-6
-0.247, 1.120e-6
-0.246, 1.121e-6
-0.245, 1.121e-6
-0.244, 1.126e-6
-0.243, 1.123e-6
-0.242, 1.129e-6
-0.241, 1.133e-6
-0.240, 1.133e-6
-0.239, 1.139e-6
-0.238, 1.138e-6
-0.237, 1.136e-6
-0.236, 1.143e-6
-0.235, 1.147e-6
-0.234, 1.147e-6
-0.233, 1.155e-6
-0.232, 1.155e-6
-0.231, 1.166e-6
-0.230, 1.162e-6
-0.229, 1.165e-6
-0.228, 1.168e-6
-0.227, 1.168e-6
-0.226, 1.170e-6
-0.225, 1.171e-6
-0.224, 1.172e-6
-0.223, 1.182e-6
-0.222, 1.180e-6
-0.221, 1.180e-6
-0.220, 1.185e-6
-0.219, 1.186e-6
-0.218, 1.181e-6
-0.217, 1.186e-6
-0.216, 1.190e-6
-0.215, 1.193e-6
-0.214, 1.196e-6
-0.213, 1.196e-6
-0.212, 1.200e-6
-0.211, 1.202e-6
-0.210, 1.203e-6
-0.209, 1.206e-6
-0.208, 1.209e-6
-0.207, 1.212e-6
-0.206, 1.211e-6
-0.205, 1.192e-6
-0.204, 1.210e-6
-0.203, 1.214e-6
-0.202, 1.217e-6
-0.201, 1.216e-6
-0.200, 1.218e-6
-0.199, 1.225e-6
-0.198, 1.227e-6
-0.197, 1.220e-6
-0.196, 1.230e-6
-0.195, 1.233e-6
-0.194, 1.233e-6
-0.193, 1.235e-6
-0.192, 1.225e-6
-0.191, 1.236e-6
-0.190, 1.239e-6
-0.189, 1.237e-6
-0.188, 1.244e-6
-0.187, 1.243e-6
-0.186, 1.245e-6
-0.185, 1.247e-6
-0.184, 1.247e-6
-0.183, 1.249e-6
-0.182, 1.252e-6
-0.181, 1.255e-6
-0.180, 1.254e-6
-0.179, 1.263e-6
-0.178, 1.260e-6
-0.177, 1.264e-6
-0.176, 1.263e-6
-0.175, 1.268e-6
-0.174, 1.266e-6
-0.173, 1.264e-6
-0.172, 1.268e-6
-0.171, 1.272e-6
-0.170, 1.271e-6
-0.169, 1.274e-6
-0.168, 1.273e-6
-0.167, 1.273e-6
-0.166, 1.273e-6
-0.165, 1.276e-6
-0.164, 1.281e-6
-0.163, 1.281e-6
-0.162, 1.281e-6
-0.161, 1.282e-6
-0.160, 1.281e-6
-0.159, 1.289e-6
-0.158, 1.290e-6
-0.157, 1.290e-6
-0.156, 1.289e-6
-0.155, 1.295e-6
-0.154, 1.289e-6
-0.153, 1.294e-6
-0.152, 1.297e-6
-0.151, 1.300e-6
-0.150, 1.296e-6
-0.149, 1.299e-6
-0.148, 1.301e-6
-0.147, 1.303e-6
-0.146, 1.304e-6
-0.145, 1.305e-6
-0.144, 1.300e-6
-0.143, 1.310e-6
-0.142, 1.307e-6
-0.141, 1.301e-6
-0.140, 1.307e-6
-0.139, 1.311e-6
-0.138, 1.308e-6
-0.137, 1.311e-6
-0.136, 1.311e-6
-0.135, 1.315e-6
-0.134, 1.317e-6
-0.133, 1.316e-6
-0.132, 1.321e-6
-0.131, 1.323e-6
-0.130, 1.320e-6
-0.129, 1.324e-6
-0.128, 1.334e-6
-0.127, 1.327e-6
-0.126, 1.330e-6
-0.125, 1.323e-6
-0.124, 1.331e-6
-0.123, 1.327e-6
-0.122, 1.328e-6
-0.121, 1.331e-6
-0.120, 1.332e-6
-0.119, 1.332e-6
-0.118, 1.334e-6
-0.117, 1.330e-6
-0.116, 1.336e-6
-0.115, 1.328e-6
-0.114, 1.332e-6
-0.113, 1.336e-6
-0.112, 1.336e-6
-0.111, 1.341e-6
-0.110, 1.337e-6
-0.109, 1.337e-6
-0.108, 1.340e-6
-0.107, 1.340e-6
-0.106, 1.341e-6
-0.105, 1.341e-6
-0.104, 1.343e-6
-0.103, 1.348e-6
-0.102, 1.352e-6
-0.101, 1.349e-6
-0.100, 1.347e-6
-0.099, 1.350e-6
-0.098, 1.346e-6
-0.097, 1.352e-6
-0.096, 1.350e-6
-0.095, 1.352e-6
-0.094, 1.355e-6
-0.093, 1.350e-6
-0.092, 1.353e-6
-0.091, 1.355e-6
-0.090, 1.345e-6
-0.089, 1.350e-6
-0.088, 1.354e-6
-0.087, 1.356e-6
-0.086, 1.354e-6
-0.085, 1.355e-6
-0.084, 1.358e-6
-0.083, 1.358e-6
-0.082, 1.359e-6
-0.081, 1.361e-6
-0.080, 1.359e-6
-0.079, 1.362e-6
-0.078, 1.364e-6
-0.077, 1.368e-6
-0.076, 1.368e-6
-0.075, 1.367e-6
-0.074, 1.365e-6
-0.073, 1.368e-6
-0.072, 1.367e-6
-0.071, 1.370e-6
-0.070, 1.368e-6
-0.069, 1.370e-6
-0.068, 1.373e-6
-0.067, 1.373e-6
-0.066, 1.371e-6
-0.065, 1.373e-6
-0.064, 1.363e-6
-0.063, 1.374e-6
-0.062, 1.372e-6
-0.061, 1.371e-6
-0.060, 1.376e-6
-0.059, 1.380e-6
-0.058, 1.376e-6
-0.057, 1.379e-6
-0.056, 1.379e-6
-0.055, 1.382e-6
-0.054, 1.383e-6
-0.053, 1.382e-6
-0.052, 1.386e-6
-0.051, 1.382e-6
-0.050, 1.383e-6
-0.049, 1.385e-6
-0.048, 1.386e-6
-0.047, 1.390e-6
-0.046, 1.392e-6
-0.045, 1.390e-6
-0.044, 1.395e-6
-0.043, 1.394e-6
-0.042, 1.388e-6
-0.041, 1.398e-6
-0.040, 1.401e-6
-0.039, 1.396e-6
-0.038, 1.397e-6
-0.037, 1.397e-6
-0.036, 1.405e-6
-0.035, 1.405e-6
-0.034, 1.401e-6
-0.033, 1.407e-6
-0.032, 1.407e-6
-0.031, 1.412e-6
-0.030, 1.412e-6
-0.029, 1.410e-6
-0.028, 1.414e-6
-0.027, 1.419e-6
-0.026, 1.427e-6
-0.025, 1.422e-6
-0.024, 1.424e-6
-0.023, 1.426e-6
-0.022, 1.427e-6
-0.021, 1.425e-6
-0.020, 1.428e-6
-0.019, 1.431e-6
-0.018, 1.429e-6
-0.017, 1.434e-6
-0.016, 1.436e-6
-0.015, 1.437e-6
-0.014, 1.440e-6
-0.013, 1.428e-6
-0.012, 1.442e-6
-0.011, 1.443e-6
-0.010, 1.445e-6
-0.009, 1.448e-6
-0.008, 1.450e-6
-0.007, 1.454e-6
-0.006, 1.455e-6
-0.005, 1.452e-6
-0.004, 1.460e-6
-0.003, 1.464e-6
-0.002, 1.466e-6
-0.001, 1.468e-6
-0.000, 1.433e-6
0.001, 1.461e-6
0.002, 1.466e-6
0.003, 1.466e-6
0.004, 1.474e-6
0.005, 1.481e-6
0.006, 1.479e-6
0.007, 1.480e-6
0.008, 1.486e-6
0.009, 1.491e-6
0.010, 1.492e-6
0.011, 1.493e-6
0.012, 1.497e-6
0.013, 1.492e-6
0.014, 1.502e-6
0.015, 1.503e-6
0.016, 1.508e-6
0.017, 1.511e-6
0.018, 1.516e-6
0.019, 1.518e-6
0.020, 1.522e-6
0.021, 1.530e-6
0.022, 1.530e-6
0.023, 1.534e-6
0.024, 1.533e-6
0.025, 1.550e-6
0.026, 1.552e-6
0.027, 1.550e-6
0.028, 1.554e-6
0.029, 1.560e-6
0.030, 1.561e-6
0.031, 1.566e-6
0.032, 1.571e-6
0.033, 1.574e-6
0.034, 1.579e-6
0.035, 1.579e-6
0.036, 1.587e-6
0.037, 1.588e-6
0.038, 1.585e-6
0.039, 1.595e-6
0.040, 1.598e-6
0.041, 1.606e-6
0.042, 1.607e-6
0.043, 1.611e-6
0.044, 1.620e-6
0.045, 1.623e-6
0.046, 1.628e-6
0.047, 1.629e-6
0.048, 1.635e-6
0.049, 1.644e-6
0.050, 1.647e-6
0.051, 1.646e-6
0.052, 1.657e-6
0.053, 1.663e-6
0.054, 1.663e-6
0.055, 1.677e-6
0.056, 1.682e-6
0.057, 1.685e-6
0.058, 1.690e-6
0.059, 1.695e-6
0.060, 1.701e-6
0.061, 1.708e-6
0.062, 1.707e-6
0.063, 1.716e-6
0.064, 1.713e-6
0.065, 1.726e-6
0.066, 1.730e-6
0.067, 1.733e-6
0.068, 1.738e-6
0.069, 1.752e-6
0.070, 1.753e-6
0.071, 1.759e-6
0.072, 1.757e-6
0.073, 1.769e-6
0.074, 1.779e-6
0.075, 1.781e-6
0.076, 1.794e-6
0.077, 1.809e-6
0.078, 1.805e-6
0.079, 1.810e-6
0.080, 1.811e-6
0.081, 1.824e-6
0.082, 1.825e-6
0.083, 1.831e-6
0.084, 1.838e-6
0.085, 1.842e-6
0.086, 1.851e-6
0.087, 1.853e-6
0.088, 1.857e-6
0.089, 1.862e-6
0.090, 1.867e-6
0.091, 1.873e-6
0.092, 1.884e-6
0.093, 1.895e-6
0.094, 1.897e-6
0.095, 1.901e-6
0.096, 1.907e-6
0.097, 1.915e-6
0.098, 1.925e-6
0.099, 1.926e-6
0.100, 1.935e-6
0.101, 1.940e-6
0.102, 1.952e-6
0.103, 1.956e-6
0.104, 1.958e-6
0.105, 1.968e-6
0.106, 1.976e-6
0.107, 1.976e-6
0.108, 1.984e-6
0.109, 1.990e-6
0.110, 1.997e-6
0.111, 2.004e-6
0.112, 2.012e-6
0.113, 2.019e-6
0.114, 2.023e-6
0.115, 2.017e-6
0.116, 2.032e-6
0.117, 2.043e-6
0.118, 2.049e-6
0.119, 2.053e-6
0.120, 2.062e-6
0.121, 2.071e-6
0.122, 2.073e-6
0.123, 2.077e-6
0.124, 2.088e-6
0.125, 2.091e-6
0.126, 2.102e-6
0.127, 2.103e-6
0.128, 2.125e-6
0.129, 2.124e-6
0.130, 2.127e-6
0.131, 2.133e-6
0.132, 2.143e-6
0.133, 2.151e-6
0.134, 2.153e-6
0.135, 2.167e-6
0.136, 2.169e-6
0.137, 2.177e-6
0.138, 2.183e-6
0.139, 2.185e-6
0.140, 2.198e-6
0.141, 2.196e-6
0.142, 2.205e-6
0.143, 2.215e-6
0.144, 2.220e-6
0.145, 2.228e-6
0.146, 2.233e-6
0.147, 2.236e-6
0.148, 2.250e-6
0.149, 2.256e-6
0.150, 2.261e-6
0.151, 2.270e-6
0.152, 2.272e-6
0.153, 2.285e-6
0.154, 2.290e-6
0.155, 2.290e-6
0.156, 2.309e-6
0.157, 2.305e-6
0.158, 2.318e-6
0.159, 2.324e-6
0.160, 2.326e-6
0.161, 2.340e-6
0.162, 2.342e-6
0.163, 2.348e-6
0.164, 2.361e-6
0.165, 2.367e-6
0.166, 2.365e-6
0.167, 2.371e-6
0.168, 2.384e-6
0.169, 2.398e-6
0.170, 2.403e-6
0.171, 2.408e-6
0.172, 2.420e-6
0.173, 2.429e-6
0.174, 2.434e-6
0.175, 2.438e-6
0.176, 2.449e-6
0.177, 2.457e-6
0.178, 2.465e-6
0.179, 2.482e-6
0.180, 2.485e-6
0.181, 2.492e-6
0.182, 2.495e-6
0.183, 2.504e-6
0.184, 2.512e-6
0.185, 2.522e-6
0.186, 2.530e-6
0.187, 2.532e-6
0.188, 2.551e-6
0.189, 2.553e-6
0.190, 2.559e-6
0.191, 2.569e-6
0.192, 2.564e-6
0.193, 2.582e-6
0.194, 2.593e-6
0.195, 2.595e-6
0.196, 2.609e-6
0.197, 2.622e-6
0.198, 2.626e-6
0.199, 2.635e-6
0.200, 2.639e-6
0.201, 2.658e-6
0.202, 2.670e-6
0.203, 2.671e-6
0.204, 2.681e-6
0.205, 2.673e-6
0.206, 2.693e-6
0.207, 2.705e-6
0.208, 2.715e-6
0.209, 2.728e-6
0.210, 2.738e-6
0.211, 2.745e-6
0.212, 2.762e-6
0.213, 2.771e-6
0.214, 2.775e-6
0.215, 2.790e-6
0.216, 2.801e-6
0.217, 2.806e-6
0.218, 2.820e-6
0.219, 2.822e-6
0.220, 2.844e-6
0.221, 2.859e-6
0.222, 2.867e-6
0.223, 2.880e-6
0.224, 2.889e-6
0.225, 2.905e-6
0.226, 2.918e-6
0.227, 2.926e-6
0.228, 2.944e-6
0.229, 2.953e-6
0.230, 2.973e-6
0.231, 2.985e-6
0.232, 2.998e-6
0.233, 3.010e-6
0.234, 3.024e-6
0.235, 3.035e-6
0.236, 3.051e-6
0.237, 3.064e-6
0.238, 3.076e-6
0.239, 3.089e-6
0.240, 3.105e-6
0.241, 3.127e-6
0.242, 3.141e-6
0.243, 3.146e-6
0.244, 3.172e-6
0.245, 3.189e-6
0.246, 3.202e-6
0.247, 3.220e-6
0.248, 3.241e-6
0.249, 3.260e-6
0.250, 3.277e-6
0.251, 3.293e-6
0.252, 3.309e-6
0.253, 3.327e-6
0.254, 3.344e-6
0.255, 3.366e-6
0.256, 3.382e-6
0.257, 3.407e-6
0.258, 3.427e-6
0.259, 3.441e-6
0.260, 3.466e-6
0.261, 3.486e-6
0.262, 3.510e-6
0.263, 3.528e-6
0.264, 3.552e-6
0.265, 3.576e-6
0.266, 3.602e-6
0.267, 3.621e-6
0.268, 3.653e-6
0.269, 3.662e-6
0.270, 3.687e-6
0.271, 3.720e-6
0.272, 3.745e-6
0.273, 3.773e-6
0.274, 3.800e-6
0.275, 3.818e-6
0.276, 3.853e-6
0.277, 3.881e-6
0.278, 3.912e-6
0.279, 3.934e-6
0.280, 3.962e-6
0.281, 4.001e-6
0.282, 4.028e-6
0.283, 4.050e-6
0.284, 4.079e-6
0.285, 4.115e-6
0.286, 4.143e-6
0.287, 4.175e-6
0.288, 4.203e-6
0.289, 4.238e-6
0.290, 4.266e-6
0.291, 4.293e-6
0.292, 4.326e-6
0.293, 4.361e-6
0.294, 4.379e-6
0.295, 4.415e-6
0.296, 4.450e-6
0.297, 4.488e-6
0.298, 4.521e-6
0.299, 4.550e-6
0.300, 4.590e-6
0.301, 4.630e-6
0.302, 4.663e-6
0.303, 4.701e-6
0.304, 4.738e-6
0.305, 4.779e-6
0.306, 4.820e-6
0.307, 4.864e-6
0.308, 4.901e-6
0.309, 4.935e-6
0.310, 4.974e-6
0.311, 5.011e-6
0.312, 5.050e-6
0.313, 5.101e-6
0.314, 5.138e-6
0.315, 5.173e-6
0.316, 5.224e-6
0.317, 5.267e-6
0.318, 5.311e-6
0.319, 5.355e-6
0.320, 5.380e-6
0.321, 5.446e-6
0.322, 5.491e-6
0.323, 5.537e-6
0.324, 5.595e-6
0.325, 5.647e-6
0.326, 5.696e-6
0.327, 5.751e-6
0.328, 5.798e-6
0.329, 5.868e-6
0.330, 5.925e-6
0.331, 5.988e-6
0.332, 6.052e-6
0.333, 6.137e-6
0.334, 6.187e-6
0.335, 6.255e-6
0.336, 6.323e-6
0.337, 6.410e-6
0.338, 6.481e-6
0.339, 6.559e-6
0.340, 6.651e-6
0.341, 6.736e-6
0.342, 6.818e-6
0.343, 6.918e-6
0.344, 7.005e-6
0.345, 7.098e-6
0.346, 7.189e-6
0.347, 7.302e-6
0.348, 7.432e-6
0.349, 7.539e-6
0.350, 7.659e-6
0.351, 7.788e-6
0.352, 7.918e-6
0.353, 8.076e-6
0.354, 8.206e-6
0.355, 8.349e-6
0.356, 8.507e-6
0.357, 8.672e-6
0.358, 8.823e-6
0.359, 8.999e-6
0.360, 9.179e-6
0.361, 9.376e-6
0.362, 9.550e-6
0.363, 9.762e-6
0.364, 9.966e-6
0.365, 1.019e-5
0.366, 1.042e-5
0.367, 1.066e-5
0.368, 1.090e-5
0.369, 1.116e-5
0.370, 1.143e-5
0.371, 1.162e-5
0.372, 1.194e-5
0.373, 1.224e-5
0.374, 1.254e-5
0.375, 1.285e-5
0.376, 1.319e-5
0.377, 1.353e-5
0.378, 1.387e-5
0.379, 1.420e-5
0.380, 1.462e-5
0.381, 1.502e-5
0.382, 1.540e-5
0.383, 1.583e-5
0.384, 1.635e-5
0.385, 1.681e-5
0.386, 1.722e-5
0.387, 1.769e-5
0.388, 1.820e-5
0.389, 1.871e-5
0.390, 1.926e-5
0.391, 1.979e-5
0.392, 2.032e-5
0.393, 2.094e-5
0.394, 2.154e-5
0.395, 2.219e-5
0.396, 2.281e-5
0.397, 2.337e-5
0.398, 2.413e-5
0.399, 2.485e-5
0.400, 2.557e-5
0.401, 2.633e-5
0.402, 2.711e-5
0.403, 2.788e-5
0.404, 2.871e-5
0.405, 2.964e-5
0.406, 3.048e-5
0.407, 3.136e-5
0.408, 3.228e-5
0.409, 3.298e-5
0.410, 3.361e-5
0.411, 3.486e-5
0.412, 3.600e-5
0.413, 3.708e-5
0.414, 3.818e-5
0.415, 3.932e-5
0.416, 4.042e-5
0.417, 4.165e-5
0.418, 4.291e-5
0.419, 4.404e-5
0.420, 4.541e-5
0.421, 4.665e-5
0.422, 4.779e-5
0.423, 4.917e-5
0.424, 5.059e-5
0.425, 5.211e-5
0.426, 5.354e-5
0.427, 5.497e-5
0.428, 5.650e-5
0.429, 5.791e-5
0.430, 5.960e-5
0.431, 6.108e-5
0.432, 6.264e-5
0.433, 6.439e-5
0.434, 6.604e-5
0.435, 6.812e-5
0.436, 6.973e-5
0.437, 7.138e-5
0.438, 7.308e-5
0.439, 7.472e-5
0.440, 7.675e-5
0.441, 7.837e-5
0.442, 8.014e-5
0.443, 8.198e-5
0.444, 8.380e-5
0.445, 8.582e-5
0.446, 8.756e-5
0.447, 8.935e-5
0.448, 9.072e-5
0.449, 9.303e-5
0.450, 9.477e-5
0.451, 9.656e-5
0.452, 9.846e-5
0.453, 1.004e-4
0.454, 1.023e-4
0.455, 1.041e-4
0.456, 1.059e-4
0.457, 1.078e-4
0.458, 1.096e-4
0.459, 1.112e-4
0.460, 1.130e-4
0.461, 1.144e-4
0.462, 1.162e-4
0.463, 1.179e-4
0.464, 1.193e-4
0.465, 1.211e-4
0.466, 1.226e-4
0.467, 1.240e-4
0.468, 1.256e-4
0.469, 1.269e-4
0.470, 1.285e-4
0.471, 1.297e-4
0.472, 1.309e-4
0.473, 1.323e-4
0.474, 1.331e-4
0.475, 1.344e-4
0.476, 1.354e-4
0.477, 1.366e-4
0.478, 1.377e-4
0.479, 1.385e-4
0.480, 1.394e-4
0.481, 1.402e-4
0.482, 1.410e-4
0.483, 1.417e-4
0.484, 1.424e-4
0.485, 1.431e-4
0.486, 1.438e-4
0.487, 1.444e-4
0.488, 1.447e-4
0.489, 1.450e-4
0.490, 1.453e-4
0.491, 1.457e-4
0.492, 1.460e-4
0.493, 1.461e-4
0.494, 1.462e-4
0.495, 1.464e-4
0.496, 1.462e-4
0.497, 1.464e-4
0.498, 1.463e-4
0.499, 1.459e-4
0.500, 1.460e-4
0.501, 1.459e-4
0.502, 1.458e-4
0.503, 1.456e-4
0.504, 1.453e-4
0.505, 1.451e-4
0.506, 1.447e-4
0.507, 1.443e-4
0.508, 1.440e-4
0.509, 1.436e-4
0.510, 1.432e-4
0.511, 1.427e-4
0.512, 1.425e-4
0.513, 1.420e-4
0.514, 1.414e-4
0.515, 1.408e-4
0.516, 1.403e-4
0.517, 1.397e-4
0.518, 1.391e-4
0.519, 1.384e-4
0.520, 1.378e-4
0.521, 1.372e-4
0.522, 1.366e-4
0.523, 1.358e-4
0.524, 1.353e-4
0.525, 1.344e-4
0.526, 1.338e-4
0.527, 1.332e-4
0.528, 1.325e-4
0.529, 1.319e-4
0.530, 1.312e-4
0.531, 1.304e-4
0.532, 1.298e-4
0.533, 1.291e-4
0.534, 1.284e-4
0.535, 1.277e-4
0.536, 1.270e-4
0.537, 1.264e-4
0.538, 1.258e-4
0.539, 1.250e-4
0.540, 1.243e-4
0.541, 1.236e-4
0.542, 1.230e-4
0.543, 1.223e-4
0.544, 1.216e-4
0.545, 1.210e-4
0.546, 1.203e-4
0.547, 1.196e-4
0.548, 1.190e-4
0.549, 1.183e-4
0.550, 1.177e-4
0.551, 1.170e-4
0.552, 1.164e-4
0.553, 1.158e-4
0.554, 1.152e-4
0.555, 1.146e-4
0.556, 1.140e-4
0.557, 1.134e-4
0.558, 1.128e-4
0.559, 1.122e-4
0.560, 1.116e-4
0.561, 1.111e-4
0.562, 1.105e-4
0.563, 1.099e-4
0.564, 1.094e-4
0.565, 1.089e-4
0.566, 1.083e-4
0.567, 1.078e-4
0.568, 1.073e-4
0.569, 1.068e-4
0.570, 1.062e-4
0.571, 1.057e-4
0.572, 1.052e-4
0.573, 1.048e-4
0.574, 1.043e-4
0.575, 1.038e-4
0.576, 1.033e-4
0.577, 1.029e-4
0.578, 1.024e-4
0.579, 1.019e-4
0.580, 1.015e-4
0.581, 1.011e-4
0.582, 1.006e-4
0.583, 1.002e-4
0.584, 9.979e-5
0.585, 9.939e-5
0.586, 9.899e-5
0.587, 9.858e-5
0.588, 9.818e-5
0.589, 9.782e-5
0.590, 9.742e-5
0.591, 9.703e-5
0.592, 9.666e-5
0.593, 9.629e-5
0.594, 9.593e-5
0.595, 9.557e-5
0.596, 9.522e-5
0.597, 9.486e-5
0.598, 9.452e-5
0.599, 9.418e-5
0.600, 9.385e-5
0.601, 9.350e-5
0.602, 9.319e-5
0.603, 9.286e-5
0.604, 9.256e-5
0.605, 9.225e-5
0.606, 9.194e-5
0.607, 9.164e-5
0.608, 9.135e-5
0.609, 9.105e-5
0.610, 9.075e-5
0.611, 9.046e-5
0.612, 9.018e-5
0.613, 8.991e-5
0.614, 8.960e-5
0.615, 8.935e-5
0.616, 8.909e-5
0.617, 8.884e-5
0.618, 8.858e-5
0.619, 8.832e-5
0.620, 8.808e-5
0.621, 8.783e-5
0.622, 8.758e-5
0.623, 8.734e-5
0.624, 8.710e-5
0.625, 8.687e-5
0.626, 8.664e-5
0.627, 8.639e-5
0.628, 8.618e-5
0.629, 8.595e-5
0.630, 8.573e-5
0.631, 8.551e-5
0.632, 8.529e-5
0.633, 8.509e-5
0.634, 8.489e-5
0.635, 8.467e-5
0.636, 8.447e-5
0.637, 8.427e-5
0.638, 8.407e-5
0.639, 8.387e-5
0.640, 8.369e-5
0.641, 8.349e-5
0.642, 8.330e-5
0.643, 8.311e-5
0.644, 8.293e-5
0.645, 8.275e-5
0.646, 8.256e-5
0.647, 8.239e-5
0.648, 8.222e-5
0.649, 8.205e-5
0.650, 8.188e-5
0.651, 8.170e-5
0.652, 8.154e-5
0.653, 8.137e-5
0.654, 8.120e-5
0.655, 8.105e-5
0.656, 8.088e-5
0.657, 8.073e-5
0.658, 8.057e-5
0.659, 8.042e-5
0.660, 8.027e-5
0.661, 8.012e-5
0.662, 7.998e-5
0.663, 7.983e-5
0.664, 7.969e-5
0.665, 7.955e-5
0.666, 7.941e-5
0.667, 7.926e-5
0.668, 7.912e-5
0.669, 7.898e-5
0.670, 7.884e-5
0.671, 7.871e-5
0.672, 7.858e-5
0.673, 7.845e-5
0.674, 7.832e-5
0.675, 7.819e-5
0.676, 7.807e-5
0.677, 7.796e-5
0.678, 7.782e-5
0.679, 7.770e-5
0.680, 7.758e-5
0.681, 7.747e-5
0.682, 7.734e-5
0.683, 7.722e-5
0.684, 7.711e-5
0.685, 7.699e-5
0.686, 7.688e-5
0.687, 7.676e-5
0.688, 7.665e-5
0.689, 7.654e-5
0.690, 7.644e-5
0.691, 7.633e-5
0.692, 7.623e-5
0.693, 7.612e-5
0.694, 7.602e-5
0.695, 7.592e-5
0.696, 7.582e-5
0.697, 7.572e-5
0.698, 7.561e-5
0.699, 7.551e-5
0.700, 7.541e-5
0.701, 7.532e-5
0.702, 7.522e-5
0.703, 7.512e-5
0.704, 7.502e-5
0.705, 7.494e-5
0.706, 7.485e-5
0.707, 7.476e-5
0.708, 7.468e-5
0.709, 7.459e-5
0.710, 7.450e-5
0.711, 7.441e-5
0.712, 7.432e-5
0.713, 7.423e-5
0.714, 7.415e-5
0.715, 7.406e-5
0.716, 7.398e-5
0.717, 7.391e-5
0.718, 7.382e-5
0.719, 7.374e-5
0.720, 7.366e-5
0.721, 7.359e-5
0.722, 7.351e-5
0.723, 7.343e-5
0.724, 7.336e-5
0.725, 7.328e-5
0.726, 7.320e-5
0.727, 7.313e-5
0.728, 7.306e-5
0.729, 7.298e-5
0.730, 7.291e-5
0.731, 7.284e-5
0.732, 7.277e-5
0.733, 7.271e-5
0.734, 7.263e-5
0.735, 7.257e-5
0.736, 7.250e-5
0.737, 7.244e-5
0.738, 7.238e-5
0.739, 7.227e-5
0.740, 7.222e-5
0.741, 7.216e-5
0.742, 7.210e-5
0.743, 7.203e-5
0.744, 7.197e-5
0.745, 7.191e-5
0.746, 7.185e-5
0.747, 7.178e-5
0.748, 7.173e-5
0.749, 7.167e-5
0.750, 7.162e-5
0.751, 7.155e-5
0.752, 7.150e-5
0.753, 7.145e-5
0.754, 7.139e-5
0.755, 7.132e-5
0.756, 7.128e-5
0.757, 7.123e-5
0.758, 7.118e-5
0.759, 7.112e-5
0.760, 7.107e-5
0.761, 7.102e-5
0.762, 7.097e-5
0.763, 7.092e-5
0.764, 7.087e-5
0.765, 7.082e-5
0.766, 7.077e-5
0.767, 7.072e-5
0.768, 7.067e-5
0.769, 7.063e-5
0.770, 7.058e-5
0.771, 7.053e-5
0.772, 7.049e-5
0.773, 7.044e-5
0.774, 7.040e-5
0.775, 7.035e-5
0.776, 7.030e-5
0.777, 7.027e-5
0.778, 7.022e-5
0.779, 7.017e-5
0.780, 7.014e-5
0.781, 7.008e-5
0.782, 7.005e-5
0.783, 7.001e-5
0.784, 6.997e-5
0.785, 6.993e-5
0.786, 6.990e-5
0.787, 6.985e-5
0.788, 6.982e-5
0.789, 6.978e-5
0.790, 6.974e-5
0.791, 6.970e-5
0.792, 6.967e-5
0.793, 6.964e-5
0.794, 6.960e-5
0.795, 6.956e-5
0.796, 6.952e-5
0.797, 6.949e-5
0.798, 6.946e-5
0.799, 6.942e-5
0.800, 6.939e-5
0.801, 6.935e-5
0.802, 6.932e-5
0.803, 6.929e-5
0.804, 6.926e-5
0.805, 6.923e-5
0.806, 6.918e-5
0.807, 6.915e-5
0.808, 6.913e-5
0.809, 6.910e-5
0.810, 6.907e-5
0.811, 6.904e-5
0.812, 6.901e-5
0.813, 6.899e-5
0.814, 6.896e-5
0.815, 6.893e-5
0.816, 6.890e-5
0.817, 6.887e-5
0.818, 6.885e-5
0.819, 6.878e-5
0.820, 6.878e-5
0.821, 6.876e-5
0.822, 6.873e-5
0.823, 6.871e-5
0.824, 6.868e-5
0.825, 6.866e-5
0.826, 6.863e-5
0.827, 6.860e-5
0.828, 6.858e-5
0.829, 6.856e-5
0.830, 6.853e-5
0.831, 6.851e-5
0.832, 6.848e-5
0.833, 6.847e-5
0.834, 6.844e-5
0.835, 6.842e-5
0.836, 6.840e-5
0.837, 6.838e-5
0.838, 6.835e-5
0.839, 6.834e-5
0.840, 6.832e-5
0.841, 6.829e-5
0.842, 6.827e-5
0.843, 6.825e-5
0.844, 6.823e-5
0.845, 6.823e-5
0.846, 6.819e-5
0.847, 6.817e-5
0.848, 6.816e-5
0.849, 6.814e-5
0.850, 6.812e-5
0.851, 6.810e-5
0.852, 6.809e-5
0.853, 6.806e-5
0.854, 6.805e-5
0.855, 6.803e-5
0.856, 6.800e-5
0.857, 6.798e-5
0.858, 6.797e-5
0.859, 6.796e-5
0.860, 6.795e-5
0.861, 6.794e-5
0.862, 6.792e-5
0.863, 6.790e-5
0.864, 6.789e-5
0.865, 6.787e-5
0.866, 6.786e-5
0.867, 6.784e-5
0.868, 6.784e-5
0.869, 6.782e-5
0.870, 6.779e-5
0.871, 6.778e-5
0.872, 6.776e-5
0.873, 6.775e-5
0.874, 6.774e-5
0.875, 6.773e-5
0.876, 6.772e-5
0.877, 6.771e-5
0.878, 6.770e-5
0.879, 6.769e-5
0.880, 6.768e-5
0.881, 6.767e-5
0.882, 6.766e-5
0.883, 6.762e-5
0.884, 6.762e-5
0.885, 6.761e-5
0.886, 6.761e-5
0.887, 6.759e-5
0.888, 6.758e-5
0.889, 6.757e-5
0.890, 6.757e-5
0.891, 6.756e-5
0.892, 6.756e-5
0.893, 6.755e-5
0.894, 6.754e-5
0.895, 6.754e-5
0.896, 6.754e-5
0.897, 6.752e-5
0.898, 6.752e-5
0.899, 6.750e-5
0.900, 6.750e-5
0.901, 6.748e-5
0.902, 6.748e-5
0.903, 6.746e-5
0.904, 6.746e-5
0.905, 6.746e-5
0.906, 6.745e-5
0.907, 6.745e-5
0.908, 6.745e-5
0.909, 6.743e-5
0.910, 6.744e-5
0.911, 6.742e-5
0.912, 6.742e-5
0.913, 6.742e-5
0.914, 6.741e-5
0.915, 6.740e-5
0.916, 6.739e-5
0.917, 6.739e-5
0.918, 6.738e-5
0.919, 6.738e-5
0.920, 6.738e-5
0.921, 6.739e-5
0.922, 6.738e-5
0.923, 6.737e-5
0.924, 6.738e-5
0.925, 6.737e-5
0.926, 6.737e-5
0.927, 6.736e-5
0.928, 6.736e-5
0.929, 6.736e-5
0.930, 6.735e-5
0.931, 6.734e-5
0.932, 6.734e-5
0.933, 6.734e-5
0.934, 6.732e-5
0.935, 6.733e-5
0.936, 6.733e-5
0.937, 6.733e-5
0.938, 6.733e-5
0.939, 6.733e-5
0.940, 6.733e-5
0.941, 6.733e-5
0.942, 6.733e-5
0.943, 6.733e-5
0.944, 6.733e-5
0.945, 6.733e-5
0.946, 6.733e-5
0.947, 6.733e-5
0.948, 6.732e-5
0.949, 6.731e-5
0.950, 6.731e-5
0.951, 6.731e-5
0.952, 6.731e-5
0.953, 6.732e-5
0.954, 6.731e-5
0.955, 6.732e-5
0.956, 6.732e-5
0.957, 6.733e-5
0.958, 6.732e-5
0.959, 6.732e-5
0.960, 6.732e-5
0.961, 6.732e-5
0.962, 6.733e-5
0.963, 6.733e-5
0.964, 6.733e-5
0.965, 6.733e-5
0.966, 6.732e-5
0.967, 6.733e-5
0.968, 6.733e-5
0.969, 6.734e-5
0.970, 6.735e-5
0.971, 6.734e-5
0.972, 6.735e-5
0.973, 6.736e-5
0.974, 6.736e-5
0.975, 6.737e-5
0.976, 6.736e-5
0.977, 6.737e-5
0.978, 6.737e-5
0.979, 6.737e-5
0.980, 6.738e-5
0.981, 6.738e-5
0.982, 6.738e-5
0.983, 6.739e-5
0.984, 6.739e-5
0.985, 6.740e-5
0.986, 6.740e-5
0.987, 6.741e-5
0.988, 6.743e-5
0.989, 6.744e-5
0.990, 6.744e-5
0.991, 6.745e-5
0.992, 6.746e-5
0.993, 6.747e-5
0.994, 6.748e-5
0.995, 6.747e-5
0.996, 6.749e-5
0.997, 6.750e-5
0.998, 6.752e-5
0.999, 6.751e-5
1.000, 6.687e-5
0.999, 6.644e-5
0.998, 6.628e-5
0.997, 6.615e-5
0.996, 6.603e-5
0.995, 6.594e-5
0.994, 6.586e-5
0.993, 6.577e-5
0.992, 6.569e-5
0.991, 6.563e-5
0.990, 6.557e-5
0.989, 6.551e-5
0.988, 6.544e-5
0.987, 6.539e-5
0.986, 6.535e-5
0.985, 6.530e-5
0.984, 6.525e-5
0.983, 6.521e-5
0.982, 6.516e-5
0.981, 6.513e-5
0.980, 6.509e-5
0.979, 6.505e-5
0.978, 6.502e-5
0.977, 6.497e-5
0.976, 6.495e-5
0.975, 6.492e-5
0.974, 6.488e-5
0.973, 6.486e-5
0.972, 6.482e-5
0.971, 6.479e-5
0.970, 6.477e-5
0.969, 6.473e-5
0.968, 6.471e-5
0.967, 6.469e-5
0.966, 6.466e-5
0.965, 6.464e-5
0.964, 6.460e-5
0.963, 6.460e-5
0.962, 6.457e-5
0.961, 6.455e-5
0.960, 6.454e-5
0.959, 6.451e-5
0.958, 6.449e-5
0.957, 6.447e-5
0.956, 6.445e-5
0.955, 6.444e-5
0.954, 6.443e-5
0.953, 6.441e-5
0.952, 6.438e-5
0.951, 6.438e-5
0.950, 6.436e-5
0.949, 6.434e-5
0.948, 6.431e-5
0.947, 6.431e-5
0.946, 6.430e-5
0.945, 6.428e-5
0.944, 6.426e-5
0.943, 6.426e-5
0.942, 6.424e-5
0.941, 6.423e-5
0.940, 6.421e-5
0.939, 6.420e-5
0.938, 6.420e-5
0.937, 6.418e-5
0.936, 6.416e-5
0.935, 6.418e-5
0.934, 6.415e-5
0.933, 6.416e-5
0.932, 6.414e-5
0.931, 6.413e-5
0.930, 6.413e-5
0.929, 6.412e-5
0.928, 6.411e-5
0.927, 6.410e-5
0.926, 6.409e-5
0.925, 6.408e-5
0.924, 6.407e-5
0.923, 6.406e-5
0.922, 6.404e-5
0.921, 6.404e-5
0.920, 6.403e-5
0.919, 6.403e-5
0.918, 6.402e-5
0.917, 6.402e-5
0.916, 6.401e-5
0.915, 6.401e-5
0.914, 6.401e-5
0.913, 6.399e-5
0.912, 6.399e-5
0.911, 6.399e-5
0.910, 6.398e-5
0.909, 6.399e-5
0.908, 6.397e-5
0.907, 6.396e-5
0.906, 6.396e-5
0.905, 6.395e-5
0.904, 6.394e-5
0.903, 6.394e-5
0.902, 6.394e-5
0.901, 6.394e-5
0.900, 6.393e-5
0.899, 6.393e-5
0.898, 6.393e-5
0.897, 6.392e-5
0.896, 6.391e-5
0.895, 6.392e-5
0.894, 6.391e-5
0.893, 6.391e-5
0.892, 6.389e-5
0.891, 6.389e-5
0.890, 6.388e-5
0.889, 6.388e-5
0.888, 6.387e-5
0.887, 6.387e-5
0.886, 6.388e-5
0.885, 6.388e-5
0.884, 6.388e-5
0.883, 6.389e-5
0.882, 6.388e-5
0.881, 6.388e-5
0.880, 6.387e-5
0.879, 6.387e-5
0.878, 6.387e-5
0.877, 6.386e-5
0.876, 6.385e-5
0.875, 6.385e-5
0.874, 6.385e-5
0.873, 6.384e-5
0.872, 6.384e-5
0.871, 6.385e-5
0.870, 6.385e-5
0.869, 6.385e-5
0.868, 6.385e-5
0.867, 6.384e-5
0.866, 6.385e-5
0.865, 6.384e-5
0.864, 6.384e-5
0.863, 6.384e-5
0.862, 6.383e-5
0.861, 6.383e-5
0.860, 6.382e-5
0.859, 6.382e-5
0.858, 6.384e-5
0.857, 6.382e-5
0.856, 6.383e-5
0.855, 6.383e-5
0.854, 6.383e-5
0.853, 6.383e-5
0.852, 6.383e-5
0.851, 6.383e-5
0.850, 6.384e-5
0.849, 6.383e-5
0.848, 6.383e-5
0.847, 6.382e-5
0.846, 6.381e-5
0.845, 6.380e-5
0.844, 6.380e-5
0.843, 6.380e-5
0.842, 6.380e-5
0.841, 6.380e-5
0.840, 6.381e-5
0.839, 6.382e-5
0.838, 6.382e-5
0.837, 6.382e-5
0.836, 6.382e-5
0.835, 6.381e-5
0.834, 6.382e-5
0.833, 6.381e-5
0.832, 6.382e-5
0.831, 6.381e-5
0.830, 6.380e-5
0.829, 6.380e-5
0.828, 6.380e-5
0.827, 6.380e-5
0.826, 6.381e-5
0.825, 6.380e-5
0.824, 6.381e-5
0.823, 6.381e-5
0.822, 6.381e-5
0.821, 6.381e-5
0.820, 6.382e-5
0.819, 6.382e-5
0.818, 6.381e-5
0.817, 6.380e-5
0.816, 6.379e-5
0.815, 6.380e-5
0.814, 6.379e-5
0.813, 6.379e-5
0.812, 6.379e-5
0.811, 6.379e-5
0.810, 6.380e-5
0.809, 6.379e-5
0.808, 6.381e-5
0.807, 6.382e-5
0.806, 6.381e-5
0.805, 6.381e-5
0.804, 6.380e-5
0.803, 6.380e-5
0.802, 6.380e-5
0.801, 6.379e-5
0.800, 6.378e-5
0.799, 6.378e-5
0.798, 6.378e-5
0.797, 6.379e-5
0.796, 6.379e-5
0.795, 6.379e-5
0.794, 6.379e-5
0.793, 6.379e-5
0.792, 6.380e-5
0.791, 6.380e-5
0.790, 6.380e-5
0.789, 6.379e-5
0.788, 6.379e-5
0.787, 6.379e-5
0.786, 6.379e-5
0.785, 6.378e-5
0.784, 6.379e-5
0.783, 6.379e-5
0.782, 6.379e-5
0.781, 6.381e-5
0.780, 6.380e-5
0.779, 6.380e-5
0.778, 6.381e-5
0.777, 6.380e-5
0.776, 6.380e-5
0.775, 6.381e-5
0.774, 6.381e-5
0.773, 6.381e-5
0.772, 6.380e-5
0.771, 6.380e-5
0.770, 6.380e-5
0.769, 6.380e-5
0.768, 6.381e-5
0.767, 6.380e-5
0.766, 6.381e-5
0.765, 6.381e-5
0.764, 6.381e-5
0.763, 6.381e-5
0.762, 6.382e-5
0.761, 6.382e-5
0.760, 6.382e-5
0.759, 6.381e-5
0.758, 6.382e-5
0.757, 6.382e-5
0.756, 6.382e-5
0.755, 6.382e-5
0.754, 6.382e-5
0.753, 6.382e-5
0.752, 6.382e-5
0.751, 6.383e-5
0.750, 6.383e-5
0.749, 6.384e-5
0.748, 6.383e-5
0.747, 6.383e-5
0.746, 6.384e-5
0.745, 6.383e-5
0.744, 6.383e-5
0.743, 6.383e-5
0.742, 6.382e-5
0.741, 6.384e-5
0.740, 6.384e-5
0.739, 6.384e-5
0.738, 6.385e-5
0.737, 6.384e-5
0.736, 6.384e-5
0.735, 6.385e-5
0.734, 6.385e-5
0.733, 6.386e-5
0.732, 6.385e-5
0.731, 6.386e-5
0.730, 6.387e-5
0.729, 6.386e-5
0.728, 6.386e-5
0.727, 6.386e-5
0.726, 6.386e-5
0.725, 6.386e-5
0.724, 6.386e-5
0.723, 6.386e-5
0.722, 6.386e-5
0.721, 6.387e-5
0.720, 6.386e-5
0.719, 6.387e-5
0.718, 6.387e-5
0.717, 6.386e-5
0.716, 6.387e-5
0.715, 6.387e-5
0.714, 6.388e-5
0.713, 6.387e-5
0.712, 6.387e-5
0.711, 6.388e-5
0.710, 6.388e-5
0.709, 6.388e-5
0.708, 6.388e-5
0.707, 6.388e-5
0.706, 6.389e-5
0.705, 6.389e-5
0.704, 6.391e-5
0.703, 6.390e-5
0.702, 6.390e-5
0.701, 6.390e-5
0.700, 6.390e-5
0.699, 6.389e-5
0.698, 6.390e-5
0.697, 6.389e-5
0.696, 6.389e-5
0.695, 6.390e-5
0.694, 6.390e-5
0.693, 6.391e-5
0.692, 6.389e-5
0.691, 6.390e-5
0.690, 6.391e-5
0.689, 6.391e-5
0.688, 6.391e-5
0.687, 6.390e-5
0.686, 6.391e-5
0.685, 6.391e-5
0.684, 6.391e-5
0.683, 6.391e-5
0.682, 6.391e-5
0.681, 6.391e-5
0.680, 6.391e-5
0.679, 6.392e-5
0.678, 6.391e-5
0.677, 6.391e-5
0.676, 6.391e-5
0.675, 6.391e-5
0.674, 6.392e-5
0.673, 6.392e-5
0.672, 6.392e-5
0.671, 6.392e-5
0.670, 6.391e-5
0.669, 6.391e-5
0.668, 6.391e-5
0.667, 6.390e-5
0.666, 6.391e-5
0.665, 6.390e-5
0.664, 6.389e-5
0.663, 6.390e-5
0.662, 6.389e-5
0.661, 6.389e-5
0.660, 6.389e-5
0.659, 6.388e-5
0.658, 6.388e-5
0.657, 6.388e-5
0.656, 6.388e-5
0.655, 6.387e-5
0.654, 6.387e-5
0.653, 6.388e-5
0.652, 6.387e-5
0.651, 6.386e-5
0.650, 6.386e-5
0.649, 6.384e-5
0.648, 6.384e-5
0.647, 6.383e-5
0.646, 6.383e-5
0.645, 6.382e-5
0.644, 6.381e-5
0.643, 6.379e-5
0.642, 6.380e-5
0.641, 6.378e-5
0.640, 6.375e-5
0.639, 6.376e-5
0.638, 6.374e-5
0.637, 6.374e-5
0.636, 6.372e-5
0.635, 6.371e-5
0.634, 6.370e-5
0.633, 6.368e-5
0.632, 6.366e-5
0.631, 6.364e-5
0.630, 6.362e-5
0.629, 6.361e-5
0.628, 6.359e-5
0.627, 6.357e-5
0.626, 6.355e-5
0.625, 6.353e-5
0.624, 6.350e-5
0.623, 6.349e-5
0.622, 6.346e-5
0.621, 6.344e-5
0.620, 6.341e-5
0.619, 6.338e-5
0.618, 6.336e-5
0.617, 6.332e-5
0.616, 6.328e-5
0.615, 6.327e-5
0.614, 6.323e-5
0.613, 6.318e-5
0.612, 6.314e-5
0.611, 6.310e-5
0.610, 6.306e-5
0.609, 6.301e-5
0.608, 6.297e-5
0.607, 6.292e-5
0.606, 6.288e-5
0.605, 6.283e-5
0.604, 6.276e-5
0.603, 6.270e-5
0.602, 6.266e-5
0.601, 6.259e-5
0.600, 6.251e-5
0.599, 6.245e-5
0.598, 6.238e-5
0.597, 6.231e-5
0.596, 6.223e-5
0.595, 6.214e-5
0.594, 6.207e-5
0.593, 6.199e-5
0.592, 6.190e-5
0.591, 6.181e-5
0.590, 6.171e-5
0.589, 6.159e-5
0.588, 6.149e-5
0.587, 6.139e-5
0.586, 6.128e-5
0.585, 6.115e-5
0.584, 6.103e-5
0.583, 6.091e-5
0.582, 6.078e-5
0.581, 6.065e-5
0.580, 6.050e-5
0.579, 6.035e-5
0.578, 6.022e-5
0.577, 6.005e-5
0.576, 5.993e-5
0.575, 5.972e-5
0.574, 5.954e-5
0.573, 5.936e-5
0.572, 5.915e-5
0.571, 5.895e-5
0.570, 5.876e-5
0.569, 5.854e-5
0.568, 5.830e-5
0.567, 5.808e-5
0.566, 5.785e-5
0.565, 5.761e-5
0.564, 5.733e-5
0.563, 5.709e-5
0.562, 5.679e-5
0.561, 5.651e-5
0.560, 5.622e-5
0.559, 5.591e-5
0.558, 5.558e-5
0.557, 5.523e-5
0.556, 5.488e-5
0.555, 5.451e-5
0.554, 5.413e-5
0.553, 5.375e-5
0.552, 5.335e-5
0.551, 5.297e-5
0.550, 5.255e-5
0.549, 5.213e-5
0.548, 5.163e-5
0.547, 5.116e-5
0.546, 5.069e-5
0.545, 5.014e-5
0.544, 4.963e-5
0.543, 4.905e-5
0.542, 4.850e-5
0.541, 4.795e-5
0.540, 4.726e-5
0.539, 4.664e-5
0.538, 4.592e-5
0.537, 4.528e-5
0.536, 4.460e-5
0.535, 4.383e-5
0.534, 4.317e-5
0.533, 4.238e-5
0.532, 4.158e-5
0.531, 4.086e-5
0.530, 3.999e-5
0.529, 3.915e-5
0.528, 3.825e-5
0.527, 3.729e-5
0.526, 3.640e-5
0.525, 3.557e-5
0.524, 3.449e-5
0.523, 3.344e-5
0.522, 3.242e-5
0.521, 3.132e-5
0.520, 3.019e-5
0.519, 2.902e-5
0.518, 2.789e-5
0.517, 2.673e-5
0.516, 2.541e-5
0.515, 2.418e-5
0.514, 2.294e-5
0.513, 2.155e-5
0.512, 1.992e-5
0.511, 1.861e-5
0.510, 1.730e-5
0.509, 1.596e-5
0.508, 1.437e-5
0.507, 1.292e-5
0.506, 1.140e-5
0.505, 9.840e-6
0.504, 8.317e-6
0.503, 6.657e-6
0.502, 5.011e-6
0.501, 3.332e-6
0.500, 1.599e-6
0.499, 2.819e-7
0.498, -1.660e-6
0.497, -3.386e-6
0.496, -5.178e-6
0.495, -7.130e-6
0.494, -8.914e-6
0.493, -1.075e-5
0.492, -1.260e-5
0.491, -1.464e-5
0.490, -1.641e-5
0.489, -1.826e-5
0.488, -2.012e-5
0.487, -2.242e-5
0.486, -2.451e-5
0.485, -2.622e-5
0.484, -2.813e-5
0.483, -3.019e-5
0.482, -3.189e-5
0.481, -3.393e-5
0.480, -3.558e-5
0.479, -3.759e-5
0.478, -3.950e-5
0.477, -4.129e-5
0.476, -4.326e-5
0.475, -4.513e-5
0.474, -4.659e-5
0.473, -4.845e-5
0.472, -5.021e-5
0.471, -5.216e-5
0.470, -5.380e-5
0.469, -5.539e-5
0.468, -5.715e-5
0.467, -5.858e-5
0.466, -6.015e-5
0.465, -6.171e-5
0.464, -6.301e-5
0.463, -6.466e-5
0.462, -6.600e-5
0.461, -6.706e-5
0.460, -6.856e-5
0.459, -6.970e-5
0.458, -7.093e-5
0.457, -7.198e-5
0.456, -7.301e-5
0.455, -7.417e-5
0.454, -7.512e-5
0.453, -7.603e-5
0.452, -7.689e-5
0.451, -7.758e-5
0.450, -7.832e-5
0.449, -7.899e-5
0.448, -7.931e-5
0.447, -8.008e-5
0.446, -8.066e-5
0.445, -8.107e-5
0.444, -8.160e-5
0.443, -8.207e-5
0.442, -8.226e-5
0.441, -8.254e-5
0.440, -8.266e-5
0.439, -8.282e-5
0.438, -8.295e-5
0.437, -8.288e-5
0.436, -8.309e-5
0.435, -8.345e-5
0.434, -8.320e-5
0.433, -8.302e-5
0.432, -8.278e-5
0.431, -8.259e-5
0.430, -8.235e-5
0.429, -8.204e-5
0.428, -8.187e-5
0.427, -8.144e-5
0.426, -8.109e-5
0.425, -8.080e-5
0.424, -8.025e-5
0.423, -7.980e-5
0.422, -7.923e-5
0.421, -7.880e-5
0.420, -7.838e-5
0.419, -7.778e-5
0.418, -7.722e-5
0.417, -7.670e-5
0.416, -7.604e-5
0.415, -7.551e-5
0.414, -7.489e-5
0.413, -7.423e-5
0.412, -7.366e-5
0.411, -7.299e-5
0.410, -7.176e-5
0.409, -7.122e-5
0.408, -7.068e-5
0.407, -7.008e-5
0.406, -6.943e-5
0.405, -6.875e-5
0.404, -6.808e-5
0.403, -6.747e-5
0.402, -6.671e-5
0.401, -6.604e-5
0.400, -6.534e-5
0.399, -6.466e-5
0.398, -6.399e-5
0.397, -6.315e-5
0.396, -6.251e-5
0.395, -6.187e-5
0.394, -6.113e-5
0.393, -6.049e-5
0.392, -5.979e-5
0.391, -5.913e-5
0.390, -5.842e-5
0.389, -5.774e-5
0.388, -5.710e-5
0.387, -5.641e-5
0.386, -5.575e-5
0.385, -5.512e-5
0.384, -5.452e-5
0.383, -5.383e-5
0.382, -5.317e-5
0.381, -5.253e-5
0.380, -5.191e-5
0.379, -5.128e-5
0.378, -5.066e-5
0.377, -5.005e-5
0.376, -4.944e-5
0.375, -4.886e-5
0.374, -4.827e-5
0.373, -4.766e-5
0.372, -4.708e-5
0.371, -4.647e-5
0.370, -4.593e-5
0.369, -4.537e-5
0.368, -4.483e-5
0.367, -4.429e-5
0.366, -4.375e-5
0.365, -4.322e-5
0.364, -4.270e-5
0.363, -4.219e-5
0.362, -4.168e-5
0.361, -4.118e-5
0.360, -4.069e-5
0.359, -4.020e-5
0.358, -3.972e-5
0.357, -3.923e-5
0.356, -3.877e-5
0.355, -3.831e-5
0.354, -3.785e-5
0.353, -3.740e-5
0.352, -3.696e-5
0.351, -3.653e-5
0.350, -3.610e-5
0.349, -3.567e-5
0.348, -3.527e-5
0.347, -3.486e-5
0.346, -3.444e-5
0.345, -3.404e-5
0.344, -3.365e-5
0.343, -3.326e-5
0.342, -3.288e-5
0.341, -3.251e-5
0.340, -3.213e-5
0.339, -3.177e-5
0.338, -3.140e-5
0.337, -3.105e-5
0.336, -3.070e-5
0.335, -3.035e-5
0.334, -3.001e-5
0.333, -2.969e-5
0.332, -2.936e-5
0.331, -2.902e-5
0.330, -2.870e-5
0.329, -2.838e-5
0.328, -2.807e-5
0.327, -2.776e-5
0.326, -2.746e-5
0.325, -2.715e-5
0.324, -2.687e-5
0.323, -2.658e-5
0.322, -2.628e-5
0.321, -2.600e-5
0.320, -2.572e-5
0.319, -2.545e-5
0.318, -2.518e-5
0.317, -2.491e-5
0.316, -2.465e-5
0.315, -2.439e-5
0.314, -2.413e-5
0.313, -2.388e-5
0.312, -2.363e-5
0.311, -2.338e-5
0.310, -2.314e-5
0.309, -2.291e-5
0.308, -2.268e-5
0.307, -2.245e-5
0.306, -2.221e-5
0.305, -2.199e-5
0.304, -2.177e-5
0.303, -2.155e-5
0.302, -2.133e-5
0.301, -2.112e-5
0.300, -2.091e-5
0.299, -2.070e-5
0.298, -2.049e-5
0.297, -2.029e-5
0.296, -2.010e-5
0.295, -1.990e-5
0.294, -1.970e-5
0.293, -1.952e-5
0.292, -1.933e-5
0.291, -1.915e-5
0.290, -1.896e-5
0.289, -1.878e-5
0.288, -1.860e-5
0.287, -1.843e-5
0.286, -1.826e-5
0.285, -1.808e-5
0.284, -1.792e-5
0.283, -1.774e-5
0.282, -1.759e-5
0.281, -1.742e-5
0.280, -1.726e-5
0.279, -1.710e-5
0.278, -1.695e-5
0.277, -1.679e-5
0.276, -1.665e-5
0.275, -1.649e-5
0.274, -1.634e-5
0.273, -1.620e-5
0.272, -1.605e-5
0.271, -1.591e-5
0.270, -1.577e-5
0.269, -1.562e-5
0.268, -1.549e-5
0.267, -1.535e-5
0.266, -1.522e-5
0.265, -1.509e-5
0.264, -1.496e-5
0.263, -1.483e-5
0.262, -1.470e-5
0.261, -1.458e-5
0.260, -1.446e-5
0.259, -1.433e-5
0.258, -1.420e-5
0.257, -1.409e-5
0.256, -1.397e-5
0.255, -1.385e-5
0.254, -1.374e-5
0.253, -1.363e-5
0.252, -1.352e-5
0.251, -1.341e-5
0.250, -1.330e-5
0.249, -1.319e-5
0.248, -1.309e-5
0.247, -1.299e-5
0.246, -1.288e-5
0.245, -1.277e-5
0.244, -1.267e-5
0.243, -1.258e-5
0.242, -1.248e-5
0.241, -1.238e-5
0.240, -1.229e-5
0.239, -1.219e-5
0.238, -1.210e-5
0.237, -1.200e-5
0.236, -1.192e-5
0.235, -1.182e-5
0.234, -1.173e-5
0.233, -1.164e-5
0.232, -1.156e-5
0.231, -1.148e-5
0.230, -1.139e-5
0.229, -1.130e-5
0.228, -1.123e-5
0.227, -1.115e-5
0.226, -1.106e-5
0.225, -1.098e-5
0.224, -1.090e-5
0.223, -1.083e-5
0.222, -1.075e-5
0.221, -1.067e-5
0.220, -1.060e-5
0.219, -1.053e-5
0.218, -1.044e-5
0.217, -1.037e-5
0.216, -1.031e-5
0.215, -1.023e-5
0.214, -1.017e-5
0.213, -1.010e-5
0.212, -1.003e-5
0.211, -9.962e-6
0.210, -9.892e-6
0.209, -9.834e-6
0.208, -9.771e-6
0.207, -9.708e-6
0.206, -9.644e-6
0.205, -9.564e-6
0.204, -9.515e-6
0.203, -9.456e-6
0.202, -9.395e-6
0.201, -9.339e-6
0.200, -9.283e-6
0.199, -9.222e-6
0.198, -9.166e-6
0.197, -9.112e-6
0.196, -9.060e-6
0.195, -9.001e-6
0.194, -8.943e-6
0.193, -8.894e-6
0.192, -8.833e-6
0.191, -8.786e-6
0.190, -8.730e-6
0.189, -8.680e-6
0.188, -8.637e-6
0.187, -8.586e-6
0.186, -8.532e-6
0.185, -8.483e-6
0.184, -8.432e-6
0.183, -8.389e-6
0.182, -8.343e-6
0.181, -8.300e-6
0.180, -8.254e-6
0.179, -8.213e-6
0.178, -8.166e-6
0.177, -8.122e-6
0.176, -8.077e-6
0.175, -8.029e-6
0.174, -7.989e-6
0.173, -7.946e-6
0.172, -7.906e-6
0.171, -7.862e-6
0.170, -7.819e-6
0.169, -7.781e-6
0.168, -7.739e-6
0.167, -7.693e-6
0.166, -7.657e-6
0.165, -7.620e-6
0.164, -7.584e-6
0.163, -7.546e-6
0.162, -7.509e-6
0.161, -7.472e-6
0.160, -7.437e-6
0.159, -7.402e-6
0.158, -7.372e-6
0.157, -7.333e-6
0.156, -7.301e-6
0.155, -7.268e-6
0.154, -7.227e-6
0.153, -7.197e-6
0.152, -7.166e-6
0.151, -7.135e-6
0.150, -7.102e-6
0.149, -7.064e-6
0.148, -7.039e-6
0.147, -7.006e-6
0.146, -6.973e-6
0.145, -6.943e-6
0.144, -6.913e-6
0.143, -6.886e-6
0.142, -6.855e-6
0.141, -6.818e-6
0.140, -6.797e-6
0.139, -6.768e-6
0.138, -6.734e-6
0.137, -6.712e-6
0.136, -6.686e-6
0.135, -6.660e-6
0.134, -6.629e-6
0.133, -6.603e-6
0.132, -6.578e-6
0.131, -6.551e-6
0.130, -6.524e-6
0.129, -6.500e-6
0.128, -6.490e-6
0.127, -6.456e-6
0.126, -6.429e-6
0.125, -6.404e-6
0.124, -6.382e-6
0.123, -6.356e-6
0.122, -6.330e-6
0.121, -6.307e-6
0.120, -6.290e-6
0.119, -6.262e-6
0.118, -6.240e-6
0.117, -6.219e-6
0.116, -6.194e-6
0.115, -6.172e-6
0.114, -6.151e-6
0.113, -6.136e-6
0.112, -6.108e-6
0.111, -6.088e-6
0.110, -6.067e-6
0.109, -6.043e-6
0.108, -6.030e-6
0.107, -6.007e-6
0.106, -5.985e-6
0.105, -5.967e-6
0.104, -5.950e-6
0.103, -5.938e-6
0.102, -5.916e-6
0.101, -5.894e-6
0.100, -5.879e-6
0.099, -5.860e-6
0.098, -5.844e-6
0.097, -5.826e-6
0.096, -5.810e-6
0.095, -5.789e-6
0.094, -5.775e-6
0.093, -5.753e-6
0.092, -5.740e-6
0.091, -5.727e-6
0.090, -5.694e-6
0.089, -5.688e-6
0.088, -5.678e-6
0.087, -5.656e-6
0.086, -5.643e-6
0.085, -5.620e-6
0.084, -5.608e-6
0.083, -5.595e-6
0.082, -5.578e-6
0.081, -5.567e-6
0.080, -5.551e-6
0.079, -5.536e-6
0.078, -5.521e-6
0.077, -5.517e-6
0.076, -5.498e-6
0.075, -5.484e-6
0.074, -5.467e-6
0.073, -5.458e-6
0.072, -5.443e-6
0.071, -5.430e-6
0.070, -5.417e-6
0.069, -5.401e-6
0.068, -5.392e-6
0.067, -5.376e-6
0.066, -5.365e-6
0.065, -5.353e-6
0.064, -5.336e-6
0.063, -5.331e-6
0.062, -5.320e-6
0.061, -5.305e-6
0.060, -5.297e-6
0.059, -5.286e-6
0.058, -5.270e-6
0.057, -5.261e-6
0.056, -5.253e-6
0.055, -5.241e-6
0.054, -5.229e-6
0.053, -5.218e-6
0.052, -5.212e-6
0.051, -5.202e-6
0.050, -5.189e-6
0.049, -5.181e-6
0.048, -5.172e-6
0.047, -5.162e-6
0.046, -5.154e-6
0.045, -5.137e-6
0.044, -5.129e-6
0.043, -5.125e-6
0.042, -5.112e-6
0.041, -5.107e-6
0.040, -5.097e-6
0.039, -5.081e-6
0.038, -5.078e-6
0.037, -5.068e-6
0.036, -5.065e-6
0.035, -5.058e-6
0.034, -5.044e-6
0.033, -5.038e-6
0.032, -5.029e-6
0.031, -5.025e-6
0.030, -5.017e-6
0.029, -5.005e-6
0.028, -5.004e-6
0.027, -4.997e-6
0.026, -4.996e-6
0.025, -4.985e-6
0.024, -4.979e-6
0.023, -4.973e-6
0.022, -4.966e-6
0.021, -4.957e-6
0.020, -4.952e-6
0.019, -4.951e-6
0.018, -4.937e-6
0.017, -4.933e-6
0.016, -4.929e-6
0.015, -4.920e-6
0.014, -4.913e-6
0.013, -4.899e-6
0.012, -4.901e-6
0.011, -4.895e-6
0.010, -4.888e-6
0.009, -4.885e-6
0.008, -4.882e-6
0.007, -4.877e-6
0.006, -4.872e-6
0.005, -4.862e-6
0.004, -4.865e-6
0.003, -4.860e-6
0.002, -4.852e-6
0.001, -4.848e-6
