June 30, 2026   19:13:28
Cyclic Voltammetry
File: mecn_ar_0.1mtbapf6_3mm_1mmco(dmgh)2(py)cl_1mmzn(cyclen)(otf)2_2
Data Source:  Experiment
Instrument Model:  CHI660D
Header: 
Note: 

Init E (V) = 0
High E (V) = 0.9
Low E (V) = -1.3
Final E (V) = 0
Init P/N = N
Scan Rate (V/s) = 0.1
Segment = 3
Sample Interval (V) = 0.001
Quiet Time (sec) = 2
Sensitivity (A/V) = 1e-4
Comp R (ohm) = 140.2

Results:

Channel 1:
Segment 1:
Ep = -0.355V
ip = -5.864e-6A
Ah = -5.012e-6C

Ep = -1.040V
ip = -4.751e-5A
Ah = -6.004e-5C

Segment 2:
Ep = 0.446V
ip = 1.046e-4A
Ah = 6.343e-5C

Segment 3:
Ep = 0.387V
ip = -1.079e-4A
Ah = -6.914e-5C

Potential/V, Current/A

0.000, -2.187e-6
-0.001, -2.270e-6
-0.002, -2.321e-6
-0.003, -2.370e-6
-0.004, -2.409e-6
-0.005, -2.458e-6
-0.006, -2.494e-6
-0.007, -2.536e-6
-0.008, -2.581e-6
-0.009, -2.614e-6
-0.010, -2.659e-6
-0.011, -2.695e-6
-0.012, -2.737e-6
-0.013, -2.778e-6
-0.014, -2.808e-6
-0.015, -2.857e-6
-0.016, -2.894e-6
-0.017, -2.933e-6
-0.018, -2.979e-6
-0.019, -3.012e-6
-0.020, -3.060e-6
-0.021, -3.097e-6
-0.022, -3.136e-6
-0.023, -3.181e-6
-0.024, -3.219e-6
-0.025, -3.269e-6
-0.026, -3.304e-6
-0.027, -3.346e-6
-0.028, -3.392e-6
-0.029, -3.427e-6
-0.030, -3.475e-6
-0.031, -3.514e-6
-0.032, -3.554e-6
-0.033, -3.598e-6
-0.034, -3.635e-6
-0.035, -3.685e-6
-0.036, -3.729e-6
-0.037, -3.768e-6
-0.038, -3.807e-6
-0.039, -3.850e-6
-0.040, -3.900e-6
-0.041, -3.941e-6
-0.042, -3.987e-6
-0.043, -4.032e-6
-0.044, -4.070e-6
-0.045, -4.112e-6
-0.046, -4.157e-6
-0.047, -4.205e-6
-0.048, -4.252e-6
-0.049, -4.291e-6
-0.050, -4.344e-6
-0.051, -4.380e-6
-0.052, -4.430e-6
-0.053, -4.480e-6
-0.054, -4.517e-6
-0.055, -4.571e-6
-0.056, -4.615e-6
-0.057, -4.664e-6
-0.058, -4.715e-6
-0.059, -4.753e-6
-0.060, -4.808e-6
-0.061, -4.850e-6
-0.062, -4.896e-6
-0.063, -4.949e-6
-0.064, -4.982e-6
-0.065, -5.035e-6
-0.066, -5.079e-6
-0.067, -5.129e-6
-0.068, -5.181e-6
-0.069, -5.220e-6
-0.070, -5.271e-6
-0.071, -5.320e-6
-0.072, -5.365e-6
-0.073, -5.417e-6
-0.074, -5.460e-6
-0.075, -5.511e-6
-0.076, -5.562e-6
-0.077, -5.612e-6
-0.078, -5.660e-6
-0.079, -5.704e-6
-0.080, -5.752e-6
-0.081, -5.795e-6
-0.082, -5.840e-6
-0.083, -5.889e-6
-0.084, -5.927e-6
-0.085, -5.974e-6
-0.086, -6.015e-6
-0.087, -6.062e-6
-0.088, -6.113e-6
-0.089, -6.151e-6
-0.090, -6.201e-6
-0.091, -6.242e-6
-0.092, -6.288e-6
-0.093, -6.334e-6
-0.094, -6.376e-6
-0.095, -6.425e-6
-0.096, -6.464e-6
-0.097, -6.510e-6
-0.098, -6.555e-6
-0.099, -6.590e-6
-0.100, -6.642e-6
-0.101, -6.680e-6
-0.102, -6.724e-6
-0.103, -6.768e-6
-0.104, -6.805e-6
-0.105, -6.855e-6
-0.106, -6.892e-6
-0.107, -6.936e-6
-0.108, -6.984e-6
-0.109, -7.017e-6
-0.110, -7.064e-6
-0.111, -7.100e-6
-0.112, -7.143e-6
-0.113, -7.179e-6
-0.114, -7.209e-6
-0.115, -7.245e-6
-0.116, -7.283e-6
-0.117, -7.317e-6
-0.118, -7.354e-6
-0.119, -7.387e-6
-0.120, -7.427e-6
-0.121, -7.460e-6
-0.122, -7.497e-6
-0.123, -7.537e-6
-0.124, -7.572e-6
-0.125, -7.616e-6
-0.126, -7.647e-6
-0.127, -7.682e-6
-0.128, -7.726e-6
-0.129, -7.749e-6
-0.130, -7.786e-6
-0.131, -7.812e-6
-0.132, -7.847e-6
-0.133, -7.880e-6
-0.134, -7.904e-6
-0.135, -7.941e-6
-0.136, -7.969e-6
-0.137, -7.999e-6
-0.138, -8.035e-6
-0.139, -8.060e-6
-0.140, -8.101e-6
-0.141, -8.125e-6
-0.142, -8.155e-6
-0.143, -8.189e-6
-0.144, -8.216e-6
-0.145, -8.246e-6
-0.146, -8.272e-6
-0.147, -8.293e-6
-0.148, -8.325e-6
-0.149, -8.346e-6
-0.150, -8.372e-6
-0.151, -8.396e-6
-0.152, -8.418e-6
-0.153, -8.446e-6
-0.154, -8.465e-6
-0.155, -8.498e-6
-0.156, -8.519e-6
-0.157, -8.547e-6
-0.158, -8.574e-6
-0.159, -8.598e-6
-0.160, -8.629e-6
-0.161, -8.649e-6
-0.162, -8.674e-6
-0.163, -8.700e-6
-0.164, -8.720e-6
-0.165, -8.750e-6
-0.166, -8.758e-6
-0.167, -8.784e-6
-0.168, -8.810e-6
-0.169, -8.825e-6
-0.170, -8.856e-6
-0.171, -8.870e-6
-0.172, -8.890e-6
-0.173, -8.915e-6
-0.174, -8.927e-6
-0.175, -8.958e-6
-0.176, -8.975e-6
-0.177, -8.999e-6
-0.178, -9.024e-6
-0.179, -9.050e-6
-0.180, -9.084e-6
-0.181, -9.101e-6
-0.182, -9.120e-6
-0.183, -9.144e-6
-0.184, -9.159e-6
-0.185, -9.183e-6
-0.186, -9.199e-6
-0.187, -9.219e-6
-0.188, -9.242e-6
-0.189, -9.253e-6
-0.190, -9.277e-6
-0.191, -9.294e-6
-0.192, -9.310e-6
-0.193, -9.338e-6
-0.194, -9.357e-6
-0.195, -9.390e-6
-0.196, -9.416e-6
-0.197, -9.447e-6
-0.198, -9.470e-6
-0.199, -9.498e-6
-0.200, -9.532e-6
-0.201, -9.556e-6
-0.202, -9.576e-6
-0.203, -9.602e-6
-0.204, -9.615e-6
-0.205, -9.636e-6
-0.206, -9.660e-6
-0.207, -9.691e-6
-0.208, -9.721e-6
-0.209, -9.749e-6
-0.210, -9.782e-6
-0.211, -9.811e-6
-0.212, -9.846e-6
-0.213, -9.886e-6
-0.214, -9.914e-6
-0.215, -9.956e-6
-0.216, -9.990e-6
-0.217, -1.002e-5
-0.218, -1.006e-5
-0.219, -1.010e-5
-0.220, -1.014e-5
-0.221, -1.018e-5
-0.222, -1.022e-5
-0.223, -1.027e-5
-0.224, -1.031e-5
-0.225, -1.036e-5
-0.226, -1.041e-5
-0.227, -1.046e-5
-0.228, -1.052e-5
-0.229, -1.057e-5
-0.230, -1.064e-5
-0.231, -1.069e-5
-0.232, -1.075e-5
-0.233, -1.081e-5
-0.234, -1.087e-5
-0.235, -1.094e-5
-0.236, -1.100e-5
-0.237, -1.106e-5
-0.238, -1.113e-5
-0.239, -1.120e-5
-0.240, -1.127e-5
-0.241, -1.134e-5
-0.242, -1.141e-5
-0.243, -1.147e-5
-0.244, -1.155e-5
-0.245, -1.162e-5
-0.246, -1.169e-5
-0.247, -1.177e-5
-0.248, -1.185e-5
-0.249, -1.192e-5
-0.250, -1.202e-5
-0.251, -1.209e-5
-0.252, -1.218e-5
-0.253, -1.227e-5
-0.254, -1.235e-5
-0.255, -1.245e-5
-0.256, -1.254e-5
-0.257, -1.263e-5
-0.258, -1.273e-5
-0.259, -1.281e-5
-0.260, -1.291e-5
-0.261, -1.299e-5
-0.262, -1.308e-5
-0.263, -1.317e-5
-0.264, -1.325e-5
-0.265, -1.335e-5
-0.266, -1.344e-5
-0.267, -1.353e-5
-0.268, -1.362e-5
-0.269, -1.371e-5
-0.270, -1.381e-5
-0.271, -1.390e-5
-0.272, -1.401e-5
-0.273, -1.410e-5
-0.274, -1.420e-5
-0.275, -1.430e-5
-0.276, -1.440e-5
-0.277, -1.449e-5
-0.278, -1.458e-5
-0.279, -1.467e-5
-0.280, -1.477e-5
-0.281, -1.487e-5
-0.282, -1.496e-5
-0.283, -1.506e-5
-0.284, -1.514e-5
-0.285, -1.524e-5
-0.286, -1.533e-5
-0.287, -1.543e-5
-0.288, -1.551e-5
-0.289, -1.560e-5
-0.290, -1.571e-5
-0.291, -1.579e-5
-0.292, -1.588e-5
-0.293, -1.597e-5
-0.294, -1.605e-5
-0.295, -1.614e-5
-0.296, -1.622e-5
-0.297, -1.631e-5
-0.298, -1.639e-5
-0.299, -1.647e-5
-0.300, -1.656e-5
-0.301, -1.663e-5
-0.302, -1.671e-5
-0.303, -1.679e-5
-0.304, -1.686e-5
-0.305, -1.694e-5
-0.306, -1.700e-5
-0.307, -1.708e-5
-0.308, -1.716e-5
-0.309, -1.722e-5
-0.310, -1.729e-5
-0.311, -1.736e-5
-0.312, -1.743e-5
-0.313, -1.749e-5
-0.314, -1.755e-5
-0.315, -1.761e-5
-0.316, -1.767e-5
-0.317, -1.773e-5
-0.318, -1.778e-5
-0.319, -1.784e-5
-0.320, -1.788e-5
-0.321, -1.792e-5
-0.322, -1.797e-5
-0.323, -1.802e-5
-0.324, -1.806e-5
-0.325, -1.812e-5
-0.326, -1.815e-5
-0.327, -1.819e-5
-0.328, -1.824e-5
-0.329, -1.828e-5
-0.330, -1.832e-5
-0.331, -1.835e-5
-0.332, -1.839e-5
-0.333, -1.843e-5
-0.334, -1.845e-5
-0.335, -1.848e-5
-0.336, -1.850e-5
-0.337, -1.853e-5
-0.338, -1.856e-5
-0.339, -1.857e-5
-0.340, -1.860e-5
-0.341, -1.861e-5
-0.342, -1.862e-5
-0.343, -1.864e-5
-0.344, -1.865e-5
-0.345, -1.866e-5
-0.346, -1.867e-5
-0.347, -1.868e-5
-0.348, -1.870e-5
-0.349, -1.870e-5
-0.350, -1.871e-5
-0.351, -1.872e-5
-0.352, -1.872e-5
-0.353, -1.872e-5
-0.354, -1.872e-5
-0.355, -1.873e-5
-0.356, -1.872e-5
-0.357, -1.871e-5
-0.358, -1.871e-5
-0.359, -1.870e-5
-0.360, -1.870e-5
-0.361, -1.869e-5
-0.362, -1.869e-5
-0.363, -1.868e-5
-0.364, -1.868e-5
-0.365, -1.867e-5
-0.366, -1.865e-5
-0.367, -1.865e-5
-0.368, -1.864e-5
-0.369, -1.862e-5
-0.370, -1.862e-5
-0.371, -1.859e-5
-0.372, -1.858e-5
-0.373, -1.857e-5
-0.374, -1.854e-5
-0.375, -1.853e-5
-0.376, -1.851e-5
-0.377, -1.850e-5
-0.378, -1.848e-5
-0.379, -1.845e-5
-0.380, -1.845e-5
-0.381, -1.842e-5
-0.382, -1.840e-5
-0.383, -1.839e-5
-0.384, -1.837e-5
-0.385, -1.836e-5
-0.386, -1.833e-5
-0.387, -1.831e-5
-0.388, -1.829e-5
-0.389, -1.826e-5
-0.390, -1.825e-5
-0.391, -1.822e-5
-0.392, -1.820e-5
-0.393, -1.818e-5
-0.394, -1.815e-5
-0.395, -1.813e-5
-0.396, -1.811e-5
-0.397, -1.808e-5
-0.398, -1.806e-5
-0.399, -1.803e-5
-0.400, -1.801e-5
-0.401, -1.798e-5
-0.402, -1.796e-5
-0.403, -1.794e-5
-0.404, -1.791e-5
-0.405, -1.789e-5
-0.406, -1.786e-5
-0.407, -1.784e-5
-0.408, -1.782e-5
-0.409, -1.776e-5
-0.410, -1.775e-5
-0.411, -1.772e-5
-0.412, -1.771e-5
-0.413, -1.768e-5
-0.414, -1.765e-5
-0.415, -1.764e-5
-0.416, -1.761e-5
-0.417, -1.759e-5
-0.418, -1.757e-5
-0.419, -1.754e-5
-0.420, -1.753e-5
-0.421, -1.750e-5
-0.422, -1.747e-5
-0.423, -1.745e-5
-0.424, -1.742e-5
-0.425, -1.741e-5
-0.426, -1.738e-5
-0.427, -1.736e-5
-0.428, -1.734e-5
-0.429, -1.731e-5
-0.430, -1.728e-5
-0.431, -1.726e-5
-0.432, -1.723e-5
-0.433, -1.721e-5
-0.434, -1.718e-5
-0.435, -1.718e-5
-0.436, -1.714e-5
-0.437, -1.712e-5
-0.438, -1.710e-5
-0.439, -1.707e-5
-0.440, -1.706e-5
-0.441, -1.703e-5
-0.442, -1.701e-5
-0.443, -1.698e-5
-0.444, -1.696e-5
-0.445, -1.694e-5
-0.446, -1.691e-5
-0.447, -1.689e-5
-0.448, -1.687e-5
-0.449, -1.684e-5
-0.450, -1.683e-5
-0.451, -1.680e-5
-0.452, -1.678e-5
-0.453, -1.677e-5
-0.454, -1.674e-5
-0.455, -1.672e-5
-0.456, -1.670e-5
-0.457, -1.668e-5
-0.458, -1.666e-5
-0.459, -1.664e-5
-0.460, -1.662e-5
-0.461, -1.659e-5
-0.462, -1.657e-5
-0.463, -1.656e-5
-0.464, -1.653e-5
-0.465, -1.652e-5
-0.466, -1.649e-5
-0.467, -1.647e-5
-0.468, -1.646e-5
-0.469, -1.643e-5
-0.470, -1.642e-5
-0.471, -1.640e-5
-0.472, -1.638e-5
-0.473, -1.636e-5
-0.474, -1.633e-5
-0.475, -1.632e-5
-0.476, -1.630e-5
-0.477, -1.628e-5
-0.478, -1.627e-5
-0.479, -1.625e-5
-0.480, -1.623e-5
-0.481, -1.621e-5
-0.482, -1.620e-5
-0.483, -1.618e-5
-0.484, -1.616e-5
-0.485, -1.615e-5
-0.486, -1.613e-5
-0.487, -1.611e-5
-0.488, -1.610e-5
-0.489, -1.607e-5
-0.490, -1.607e-5
-0.491, -1.604e-5
-0.492, -1.603e-5
-0.493, -1.602e-5
-0.494, -1.600e-5
-0.495, -1.599e-5
-0.496, -1.597e-5
-0.497, -1.595e-5
-0.498, -1.594e-5
-0.499, -1.591e-5
-0.500, -1.591e-5
-0.501, -1.589e-5
-0.502, -1.587e-5
-0.503, -1.587e-5
-0.504, -1.584e-5
-0.505, -1.584e-5
-0.506, -1.582e-5
-0.507, -1.580e-5
-0.508, -1.580e-5
-0.509, -1.578e-5
-0.510, -1.577e-5
-0.511, -1.575e-5
-0.512, -1.575e-5
-0.513, -1.574e-5
-0.514, -1.572e-5
-0.515, -1.571e-5
-0.516, -1.570e-5
-0.517, -1.568e-5
-0.518, -1.567e-5
-0.519, -1.566e-5
-0.520, -1.565e-5
-0.521, -1.563e-5
-0.522, -1.562e-5
-0.523, -1.561e-5
-0.524, -1.559e-5
-0.525, -1.558e-5
-0.526, -1.557e-5
-0.527, -1.556e-5
-0.528, -1.556e-5
-0.529, -1.554e-5
-0.530, -1.554e-5
-0.531, -1.552e-5
-0.532, -1.551e-5
-0.533, -1.551e-5
-0.534, -1.549e-5
-0.535, -1.549e-5
-0.536, -1.547e-5
-0.537, -1.547e-5
-0.538, -1.546e-5
-0.539, -1.545e-5
-0.540, -1.545e-5
-0.541, -1.543e-5
-0.542, -1.542e-5
-0.543, -1.542e-5
-0.544, -1.540e-5
-0.545, -1.540e-5
-0.546, -1.539e-5
-0.547, -1.538e-5
-0.548, -1.538e-5
-0.549, -1.536e-5
-0.550, -1.535e-5
-0.551, -1.534e-5
-0.552, -1.533e-5
-0.553, -1.533e-5
-0.554, -1.531e-5
-0.555, -1.531e-5
-0.556, -1.530e-5
-0.557, -1.529e-5
-0.558, -1.528e-5
-0.559, -1.527e-5
-0.560, -1.527e-5
-0.561, -1.526e-5
-0.562, -1.525e-5
-0.563, -1.524e-5
-0.564, -1.523e-5
-0.565, -1.523e-5
-0.566, -1.522e-5
-0.567, -1.521e-5
-0.568, -1.521e-5
-0.569, -1.519e-5
-0.570, -1.519e-5
-0.571, -1.518e-5
-0.572, -1.517e-5
-0.573, -1.517e-5
-0.574, -1.516e-5
-0.575, -1.516e-5
-0.576, -1.514e-5
-0.577, -1.514e-5
-0.578, -1.513e-5
-0.579, -1.512e-5
-0.580, -1.512e-5
-0.581, -1.511e-5
-0.582, -1.510e-5
-0.583, -1.510e-5
-0.584, -1.509e-5
-0.585, -1.509e-5
-0.586, -1.507e-5
-0.587, -1.507e-5
-0.588, -1.507e-5
-0.589, -1.506e-5
-0.590, -1.505e-5
-0.591, -1.505e-5
-0.592, -1.504e-5
-0.593, -1.504e-5
-0.594, -1.502e-5
-0.595, -1.502e-5
-0.596, -1.502e-5
-0.597, -1.500e-5
-0.598, -1.500e-5
-0.599, -1.499e-5
-0.600, -1.499e-5
-0.601, -1.498e-5
-0.602, -1.497e-5
-0.603, -1.497e-5
-0.604, -1.497e-5
-0.605, -1.496e-5
-0.606, -1.495e-5
-0.607, -1.495e-5
-0.608, -1.495e-5
-0.609, -1.494e-5
-0.610, -1.494e-5
-0.611, -1.493e-5
-0.612, -1.493e-5
-0.613, -1.493e-5
-0.614, -1.489e-5
-0.615, -1.491e-5
-0.616, -1.490e-5
-0.617, -1.490e-5
-0.618, -1.490e-5
-0.619, -1.488e-5
-0.620, -1.489e-5
-0.621, -1.488e-5
-0.622, -1.488e-5
-0.623, -1.488e-5
-0.624, -1.487e-5
-0.625, -1.487e-5
-0.626, -1.486e-5
-0.627, -1.485e-5
-0.628, -1.486e-5
-0.629, -1.485e-5
-0.630, -1.485e-5
-0.631, -1.484e-5
-0.632, -1.484e-5
-0.633, -1.484e-5
-0.634, -1.483e-5
-0.635, -1.484e-5
-0.636, -1.483e-5
-0.637, -1.483e-5
-0.638, -1.483e-5
-0.639, -1.482e-5
-0.640, -1.484e-5
-0.641, -1.482e-5
-0.642, -1.482e-5
-0.643, -1.482e-5
-0.644, -1.482e-5
-0.645, -1.482e-5
-0.646, -1.481e-5
-0.647, -1.481e-5
-0.648, -1.482e-5
-0.649, -1.481e-5
-0.650, -1.481e-5
-0.651, -1.480e-5
-0.652, -1.480e-5
-0.653, -1.481e-5
-0.654, -1.480e-5
-0.655, -1.480e-5
-0.656, -1.480e-5
-0.657, -1.480e-5
-0.658, -1.480e-5
-0.659, -1.479e-5
-0.660, -1.480e-5
-0.661, -1.480e-5
-0.662, -1.480e-5
-0.663, -1.480e-5
-0.664, -1.480e-5
-0.665, -1.480e-5
-0.666, -1.480e-5
-0.667, -1.480e-5
-0.668, -1.481e-5
-0.669, -1.480e-5
-0.670, -1.481e-5
-0.671, -1.481e-5
-0.672, -1.481e-5
-0.673, -1.481e-5
-0.674, -1.480e-5
-0.675, -1.481e-5
-0.676, -1.481e-5
-0.677, -1.481e-5
-0.678, -1.481e-5
-0.679, -1.481e-5
-0.680, -1.483e-5
-0.681, -1.482e-5
-0.682, -1.482e-5
-0.683, -1.483e-5
-0.684, -1.483e-5
-0.685, -1.484e-5
-0.686, -1.483e-5
-0.687, -1.484e-5
-0.688, -1.485e-5
-0.689, -1.484e-5
-0.690, -1.486e-5
-0.691, -1.486e-5
-0.692, -1.486e-5
-0.693, -1.487e-5
-0.694, -1.486e-5
-0.695, -1.487e-5
-0.696, -1.488e-5
-0.697, -1.488e-5
-0.698, -1.489e-5
-0.699, -1.489e-5
-0.700, -1.490e-5
-0.701, -1.491e-5
-0.702, -1.491e-5
-0.703, -1.492e-5
-0.704, -1.492e-5
-0.705, -1.493e-5
-0.706, -1.494e-5
-0.707, -1.494e-5
-0.708, -1.496e-5
-0.709, -1.495e-5
-0.710, -1.496e-5
-0.711, -1.497e-5
-0.712, -1.498e-5
-0.713, -1.499e-5
-0.714, -1.499e-5
-0.715, -1.500e-5
-0.716, -1.501e-5
-0.717, -1.502e-5
-0.718, -1.503e-5
-0.719, -1.503e-5
-0.720, -1.505e-5
-0.721, -1.506e-5
-0.722, -1.506e-5
-0.723, -1.508e-5
-0.724, -1.508e-5
-0.725, -1.510e-5
-0.726, -1.510e-5
-0.727, -1.512e-5
-0.728, -1.513e-5
-0.729, -1.513e-5
-0.730, -1.515e-5
-0.731, -1.516e-5
-0.732, -1.517e-5
-0.733, -1.519e-5
-0.734, -1.519e-5
-0.735, -1.521e-5
-0.736, -1.522e-5
-0.737, -1.524e-5
-0.738, -1.526e-5
-0.739, -1.526e-5
-0.740, -1.528e-5
-0.741, -1.530e-5
-0.742, -1.531e-5
-0.743, -1.533e-5
-0.744, -1.534e-5
-0.745, -1.536e-5
-0.746, -1.537e-5
-0.747, -1.539e-5
-0.748, -1.542e-5
-0.749, -1.542e-5
-0.750, -1.544e-5
-0.751, -1.546e-5
-0.752, -1.547e-5
-0.753, -1.550e-5
-0.754, -1.551e-5
-0.755, -1.553e-5
-0.756, -1.555e-5
-0.757, -1.557e-5
-0.758, -1.559e-5
-0.759, -1.560e-5
-0.760, -1.564e-5
-0.761, -1.565e-5
-0.762, -1.568e-5
-0.763, -1.570e-5
-0.764, -1.572e-5
-0.765, -1.575e-5
-0.766, -1.576e-5
-0.767, -1.579e-5
-0.768, -1.582e-5
-0.769, -1.583e-5
-0.770, -1.587e-5
-0.771, -1.589e-5
-0.772, -1.592e-5
-0.773, -1.594e-5
-0.774, -1.596e-5
-0.775, -1.600e-5
-0.776, -1.602e-5
-0.777, -1.605e-5
-0.778, -1.608e-5
-0.779, -1.610e-5
-0.780, -1.614e-5
-0.781, -1.616e-5
-0.782, -1.619e-5
-0.783, -1.623e-5
-0.784, -1.626e-5
-0.785, -1.630e-5
-0.786, -1.633e-5
-0.787, -1.636e-5
-0.788, -1.641e-5
-0.789, -1.644e-5
-0.790, -1.648e-5
-0.791, -1.651e-5
-0.792, -1.656e-5
-0.793, -1.661e-5
-0.794, -1.665e-5
-0.795, -1.669e-5
-0.796, -1.674e-5
-0.797, -1.678e-5
-0.798, -1.683e-5
-0.799, -1.687e-5
-0.800, -1.693e-5
-0.801, -1.698e-5
-0.802, -1.703e-5
-0.803, -1.709e-5
-0.804, -1.715e-5
-0.805, -1.722e-5
-0.806, -1.725e-5
-0.807, -1.733e-5
-0.808, -1.740e-5
-0.809, -1.746e-5
-0.810, -1.755e-5
-0.811, -1.760e-5
-0.812, -1.769e-5
-0.813, -1.777e-5
-0.814, -1.785e-5
-0.815, -1.794e-5
-0.816, -1.802e-5
-0.817, -1.811e-5
-0.818, -1.821e-5
-0.819, -1.827e-5
-0.820, -1.840e-5
-0.821, -1.849e-5
-0.822, -1.861e-5
-0.823, -1.872e-5
-0.824, -1.883e-5
-0.825, -1.895e-5
-0.826, -1.906e-5
-0.827, -1.919e-5
-0.828, -1.932e-5
-0.829, -1.944e-5
-0.830, -1.959e-5
-0.831, -1.971e-5
-0.832, -1.984e-5
-0.833, -2.000e-5
-0.834, -2.014e-5
-0.835, -2.030e-5
-0.836, -2.045e-5
-0.837, -2.062e-5
-0.838, -2.078e-5
-0.839, -2.094e-5
-0.840, -2.113e-5
-0.841, -2.130e-5
-0.842, -2.147e-5
-0.843, -2.166e-5
-0.844, -2.185e-5
-0.845, -2.207e-5
-0.846, -2.225e-5
-0.847, -2.244e-5
-0.848, -2.264e-5
-0.849, -2.285e-5
-0.850, -2.307e-5
-0.851, -2.326e-5
-0.852, -2.351e-5
-0.853, -2.373e-5
-0.854, -2.394e-5
-0.855, -2.419e-5
-0.856, -2.440e-5
-0.857, -2.464e-5
-0.858, -2.486e-5
-0.859, -2.512e-5
-0.860, -2.538e-5
-0.861, -2.561e-5
-0.862, -2.588e-5
-0.863, -2.614e-5
-0.864, -2.639e-5
-0.865, -2.669e-5
-0.866, -2.693e-5
-0.867, -2.721e-5
-0.868, -2.750e-5
-0.869, -2.777e-5
-0.870, -2.806e-5
-0.871, -2.832e-5
-0.872, -2.864e-5
-0.873, -2.893e-5
-0.874, -2.922e-5
-0.875, -2.953e-5
-0.876, -2.983e-5
-0.877, -3.016e-5
-0.878, -3.046e-5
-0.879, -3.079e-5
-0.880, -3.112e-5
-0.881, -3.143e-5
-0.882, -3.177e-5
-0.883, -3.206e-5
-0.884, -3.239e-5
-0.885, -3.277e-5
-0.886, -3.309e-5
-0.887, -3.347e-5
-0.888, -3.381e-5
-0.889, -3.416e-5
-0.890, -3.453e-5
-0.891, -3.488e-5
-0.892, -3.527e-5
-0.893, -3.562e-5
-0.894, -3.599e-5
-0.895, -3.640e-5
-0.896, -3.685e-5
-0.897, -3.722e-5
-0.898, -3.759e-5
-0.899, -3.796e-5
-0.900, -3.839e-5
-0.901, -3.876e-5
-0.902, -3.920e-5
-0.903, -3.959e-5
-0.904, -4.000e-5
-0.905, -4.047e-5
-0.906, -4.085e-5
-0.907, -4.129e-5
-0.908, -4.172e-5
-0.909, -4.212e-5
-0.910, -4.257e-5
-0.911, -4.299e-5
-0.912, -4.343e-5
-0.913, -4.390e-5
-0.914, -4.434e-5
-0.915, -4.481e-5
-0.916, -4.523e-5
-0.917, -4.573e-5
-0.918, -4.615e-5
-0.919, -4.662e-5
-0.920, -4.711e-5
-0.921, -4.758e-5
-0.922, -4.810e-5
-0.923, -4.852e-5
-0.924, -4.900e-5
-0.925, -4.948e-5
-0.926, -4.989e-5
-0.927, -5.040e-5
-0.928, -5.085e-5
-0.929, -5.134e-5
-0.930, -5.183e-5
-0.931, -5.223e-5
-0.932, -5.277e-5
-0.933, -5.323e-5
-0.934, -5.364e-5
-0.935, -5.417e-5
-0.936, -5.460e-5
-0.937, -5.511e-5
-0.938, -5.554e-5
-0.939, -5.599e-5
-0.940, -5.652e-5
-0.941, -5.691e-5
-0.942, -5.741e-5
-0.943, -5.785e-5
-0.944, -5.827e-5
-0.945, -5.878e-5
-0.946, -5.918e-5
-0.947, -5.972e-5
-0.948, -6.013e-5
-0.949, -6.054e-5
-0.950, -6.099e-5
-0.951, -6.137e-5
-0.952, -6.180e-5
-0.953, -6.222e-5
-0.954, -6.260e-5
-0.955, -6.304e-5
-0.956, -6.339e-5
-0.957, -6.381e-5
-0.958, -6.416e-5
-0.959, -6.454e-5
-0.960, -6.487e-5
-0.961, -6.524e-5
-0.962, -6.563e-5
-0.963, -6.594e-5
-0.964, -6.631e-5
-0.965, -6.666e-5
-0.966, -6.693e-5
-0.967, -6.729e-5
-0.968, -6.759e-5
-0.969, -6.791e-5
-0.970, -6.822e-5
-0.971, -6.848e-5
-0.972, -6.878e-5
-0.973, -6.904e-5
-0.974, -6.931e-5
-0.975, -6.961e-5
-0.976, -6.984e-5
-0.977, -7.010e-5
-0.978, -7.035e-5
-0.979, -7.055e-5
-0.980, -7.083e-5
-0.981, -7.102e-5
-0.982, -7.125e-5
-0.983, -7.144e-5
-0.984, -7.166e-5
-0.985, -7.185e-5
-0.986, -7.200e-5
-0.987, -7.220e-5
-0.988, -7.239e-5
-0.989, -7.254e-5
-0.990, -7.273e-5
-0.991, -7.286e-5
-0.992, -7.302e-5
-0.993, -7.318e-5
-0.994, -7.328e-5
-0.995, -7.344e-5
-0.996, -7.356e-5
-0.997, -7.370e-5
-0.998, -7.385e-5
-0.999, -7.394e-5
-1.000, -7.408e-5
-1.001, -7.415e-5
-1.002, -7.425e-5
-1.003, -7.434e-5
-1.004, -7.443e-5
-1.005, -7.452e-5
-1.006, -7.458e-5
-1.007, -7.468e-5
-1.008, -7.475e-5
-1.009, -7.481e-5
-1.010, -7.490e-5
-1.011, -7.490e-5
-1.012, -7.497e-5
-1.013, -7.506e-5
-1.014, -7.507e-5
-1.015, -7.516e-5
-1.016, -7.518e-5
-1.017, -7.524e-5
-1.018, -7.528e-5
-1.019, -7.531e-5
-1.020, -7.537e-5
-1.021, -7.538e-5
-1.022, -7.541e-5
-1.023, -7.545e-5
-1.024, -7.541e-5
-1.025, -7.549e-5
-1.026, -7.549e-5
-1.027, -7.552e-5
-1.028, -7.555e-5
-1.029, -7.555e-5
-1.030, -7.558e-5
-1.031, -7.558e-5
-1.032, -7.560e-5
-1.033, -7.561e-5
-1.034, -7.561e-5
-1.035, -7.563e-5
-1.036, -7.562e-5
-1.037, -7.562e-5
-1.038, -7.564e-5
-1.039, -7.563e-5
-1.040, -7.565e-5
-1.041, -7.564e-5
-1.042, -7.564e-5
-1.043, -7.564e-5
-1.044, -7.564e-5
-1.045, -7.565e-5
-1.046, -7.562e-5
-1.047, -7.563e-5
-1.048, -7.563e-5
-1.049, -7.562e-5
-1.050, -7.563e-5
-1.051, -7.561e-5
-1.052, -7.561e-5
-1.053, -7.561e-5
-1.054, -7.559e-5
-1.055, -7.559e-5
-1.056, -7.558e-5
-1.057, -7.557e-5
-1.058, -7.557e-5
-1.059, -7.555e-5
-1.060, -7.556e-5
-1.061, -7.553e-5
-1.062, -7.552e-5
-1.063, -7.552e-5
-1.064, -7.551e-5
-1.065, -7.551e-5
-1.066, -7.549e-5
-1.067, -7.548e-5
-1.068, -7.548e-5
-1.069, -7.546e-5
-1.070, -7.546e-5
-1.071, -7.544e-5
-1.072, -7.544e-5
-1.073, -7.544e-5
-1.074, -7.542e-5
-1.075, -7.542e-5
-1.076, -7.541e-5
-1.077, -7.540e-5
-1.078, -7.540e-5
-1.079, -7.539e-5
-1.080, -7.539e-5
-1.081, -7.538e-5
-1.082, -7.538e-5
-1.083, -7.537e-5
-1.084, -7.536e-5
-1.085, -7.536e-5
-1.086, -7.536e-5
-1.087, -7.535e-5
-1.088, -7.534e-5
-1.089, -7.533e-5
-1.090, -7.534e-5
-1.091, -7.533e-5
-1.092, -7.533e-5
-1.093, -7.534e-5
-1.094, -7.532e-5
-1.095, -7.533e-5
-1.096, -7.532e-5
-1.097, -7.532e-5
-1.098, -7.533e-5
-1.099, -7.531e-5
-1.100, -7.534e-5
-1.101, -7.533e-5
-1.102, -7.533e-5
-1.103, -7.534e-5
-1.104, -7.532e-5
-1.105, -7.534e-5
-1.106, -7.533e-5
-1.107, -7.533e-5
-1.108, -7.535e-5
-1.109, -7.535e-5
-1.110, -7.536e-5
-1.111, -7.536e-5
-1.112, -7.537e-5
-1.113, -7.537e-5
-1.114, -7.537e-5
-1.115, -7.539e-5
-1.116, -7.539e-5
-1.117, -7.540e-5
-1.118, -7.541e-5
-1.119, -7.542e-5
-1.120, -7.544e-5
-1.121, -7.544e-5
-1.122, -7.545e-5
-1.123, -7.547e-5
-1.124, -7.547e-5
-1.125, -7.550e-5
-1.126, -7.552e-5
-1.127, -7.553e-5
-1.128, -7.555e-5
-1.129, -7.555e-5
-1.130, -7.559e-5
-1.131, -7.560e-5
-1.132, -7.562e-5
-1.133, -7.565e-5
-1.134, -7.566e-5
-1.135, -7.568e-5
-1.136, -7.570e-5
-1.137, -7.573e-5
-1.138, -7.576e-5
-1.139, -7.576e-5
-1.140, -7.581e-5
-1.141, -7.583e-5
-1.142, -7.586e-5
-1.143, -7.589e-5
-1.144, -7.591e-5
-1.145, -7.595e-5
-1.146, -7.598e-5
-1.147, -7.601e-5
-1.148, -7.606e-5
-1.149, -7.609e-5
-1.150, -7.613e-5
-1.151, -7.616e-5
-1.152, -7.622e-5
-1.153, -7.625e-5
-1.154, -7.628e-5
-1.155, -7.633e-5
-1.156, -7.637e-5
-1.157, -7.641e-5
-1.158, -7.646e-5
-1.159, -7.650e-5
-1.160, -7.657e-5
-1.161, -7.661e-5
-1.162, -7.666e-5
-1.163, -7.673e-5
-1.164, -7.677e-5
-1.165, -7.683e-5
-1.166, -7.689e-5
-1.167, -7.695e-5
-1.168, -7.701e-5
-1.169, -7.708e-5
-1.170, -7.715e-5
-1.171, -7.720e-5
-1.172, -7.728e-5
-1.173, -7.735e-5
-1.174, -7.741e-5
-1.175, -7.750e-5
-1.176, -7.756e-5
-1.177, -7.763e-5
-1.178, -7.772e-5
-1.179, -7.778e-5
-1.180, -7.789e-5
-1.181, -7.796e-5
-1.182, -7.805e-5
-1.183, -7.815e-5
-1.184, -7.823e-5
-1.185, -7.833e-5
-1.186, -7.841e-5
-1.187, -7.852e-5
-1.188, -7.862e-5
-1.189, -7.871e-5
-1.190, -7.881e-5
-1.191, -7.891e-5
-1.192, -7.902e-5
-1.193, -7.913e-5
-1.194, -7.923e-5
-1.195, -7.935e-5
-1.196, -7.945e-5
-1.197, -7.957e-5
-1.198, -7.969e-5
-1.199, -7.980e-5
-1.200, -7.994e-5
-1.201, -8.006e-5
-1.202, -8.018e-5
-1.203, -8.032e-5
-1.204, -8.045e-5
-1.205, -8.058e-5
-1.206, -8.070e-5
-1.207, -8.084e-5
-1.208, -8.099e-5
-1.209, -8.111e-5
-1.210, -8.126e-5
-1.211, -8.139e-5
-1.212, -8.154e-5
-1.213, -8.168e-5
-1.214, -8.181e-5
-1.215, -8.198e-5
-1.216, -8.208e-5
-1.217, -8.226e-5
-1.218, -8.240e-5
-1.219, -8.254e-5
-1.220, -8.272e-5
-1.221, -8.285e-5
-1.222, -8.302e-5
-1.223, -8.318e-5
-1.224, -8.332e-5
-1.225, -8.350e-5
-1.226, -8.364e-5
-1.227, -8.381e-5
-1.228, -8.395e-5
-1.229, -8.405e-5
-1.230, -8.424e-5
-1.231, -8.440e-5
-1.232, -8.456e-5
-1.233, -8.472e-5
-1.234, -8.488e-5
-1.235, -8.505e-5
-1.236, -8.520e-5
-1.237, -8.536e-5
-1.238, -8.551e-5
-1.239, -8.566e-5
-1.240, -8.584e-5
-1.241, -8.598e-5
-1.242, -8.612e-5
-1.243, -8.629e-5
-1.244, -8.643e-5
-1.245, -8.659e-5
-1.246, -8.673e-5
-1.247, -8.690e-5
-1.248, -8.704e-5
-1.249, -8.718e-5
-1.250, -8.733e-5
-1.251, -8.746e-5
-1.252, -8.761e-5
-1.253, -8.775e-5
-1.254, -8.790e-5
-1.255, -8.804e-5
-1.256, -8.817e-5
-1.257, -8.830e-5
-1.258, -8.844e-5
-1.259, -8.857e-5
-1.260, -8.872e-5
-1.261, -8.884e-5
-1.262, -8.897e-5
-1.263, -8.911e-5
-1.264, -8.921e-5
-1.265, -8.935e-5
-1.266, -8.946e-5
-1.267, -8.957e-5
-1.268, -8.971e-5
-1.269, -8.981e-5
-1.270, -8.994e-5
-1.271, -9.005e-5
-1.272, -9.017e-5
-1.273, -9.029e-5
-1.274, -9.040e-5
-1.275, -9.052e-5
-1.276, -9.063e-5
-1.277, -9.073e-5
-1.278, -9.084e-5
-1.279, -9.095e-5
-1.280, -9.106e-5
-1.281, -9.116e-5
-1.282, -9.127e-5
-1.283, -9.138e-5
-1.284, -9.149e-5
-1.285, -9.160e-5
-1.286, -9.169e-5
-1.287, -9.181e-5
-1.288, -9.191e-5
-1.289, -9.200e-5
-1.290, -9.212e-5
-1.291, -9.221e-5
-1.292, -9.231e-5
-1.293, -9.242e-5
-1.294, -9.250e-5
-1.295, -9.263e-5
-1.296, -9.272e-5
-1.297, -9.284e-5
-1.298, -9.295e-5
-1.299, -9.304e-5
-1.300, -9.250e-5
-1.299, -9.169e-5
-1.298, -9.114e-5
-1.297, -9.067e-5
-1.296, -9.022e-5
-1.295, -8.983e-5
-1.294, -8.943e-5
-1.293, -8.909e-5
-1.292, -8.872e-5
-1.291, -8.837e-5
-1.290, -8.805e-5
-1.289, -8.771e-5
-1.288, -8.741e-5
-1.287, -8.709e-5
-1.286, -8.678e-5
-1.285, -8.649e-5
-1.284, -8.617e-5
-1.283, -8.588e-5
-1.282, -8.560e-5
-1.281, -8.529e-5
-1.280, -8.502e-5
-1.279, -8.473e-5
-1.278, -8.445e-5
-1.277, -8.417e-5
-1.276, -8.389e-5
-1.275, -8.363e-5
-1.274, -8.334e-5
-1.273, -8.307e-5
-1.272, -8.281e-5
-1.271, -8.252e-5
-1.270, -8.227e-5
-1.269, -8.200e-5
-1.268, -8.174e-5
-1.267, -8.149e-5
-1.266, -8.121e-5
-1.265, -8.096e-5
-1.264, -8.069e-5
-1.263, -8.043e-5
-1.262, -8.018e-5
-1.261, -7.991e-5
-1.260, -7.965e-5
-1.259, -7.939e-5
-1.258, -7.914e-5
-1.257, -7.888e-5
-1.256, -7.862e-5
-1.255, -7.837e-5
-1.254, -7.809e-5
-1.253, -7.784e-5
-1.252, -7.759e-5
-1.251, -7.733e-5
-1.250, -7.709e-5
-1.249, -7.683e-5
-1.248, -7.659e-5
-1.247, -7.635e-5
-1.246, -7.610e-5
-1.245, -7.587e-5
-1.244, -7.562e-5
-1.243, -7.538e-5
-1.242, -7.516e-5
-1.241, -7.492e-5
-1.240, -7.469e-5
-1.239, -7.445e-5
-1.238, -7.423e-5
-1.237, -7.400e-5
-1.236, -7.376e-5
-1.235, -7.355e-5
-1.234, -7.332e-5
-1.233, -7.310e-5
-1.232, -7.289e-5
-1.231, -7.266e-5
-1.230, -7.247e-5
-1.229, -7.231e-5
-1.228, -7.209e-5
-1.227, -7.189e-5
-1.226, -7.168e-5
-1.225, -7.149e-5
-1.224, -7.129e-5
-1.223, -7.110e-5
-1.222, -7.092e-5
-1.221, -7.073e-5
-1.220, -7.057e-5
-1.219, -7.037e-5
-1.218, -7.021e-5
-1.217, -7.004e-5
-1.216, -6.988e-5
-1.215, -6.971e-5
-1.214, -6.953e-5
-1.213, -6.938e-5
-1.212, -6.923e-5
-1.211, -6.907e-5
-1.210, -6.894e-5
-1.209, -6.878e-5
-1.208, -6.864e-5
-1.207, -6.851e-5
-1.206, -6.837e-5
-1.205, -6.825e-5
-1.204, -6.810e-5
-1.203, -6.796e-5
-1.202, -6.785e-5
-1.201, -6.772e-5
-1.200, -6.761e-5
-1.199, -6.749e-5
-1.198, -6.738e-5
-1.197, -6.727e-5
-1.196, -6.715e-5
-1.195, -6.705e-5
-1.194, -6.694e-5
-1.193, -6.684e-5
-1.192, -6.674e-5
-1.191, -6.664e-5
-1.190, -6.657e-5
-1.189, -6.646e-5
-1.188, -6.638e-5
-1.187, -6.630e-5
-1.186, -6.620e-5
-1.185, -6.613e-5
-1.184, -6.604e-5
-1.183, -6.595e-5
-1.182, -6.588e-5
-1.181, -6.579e-5
-1.180, -6.572e-5
-1.179, -6.564e-5
-1.178, -6.557e-5
-1.177, -6.550e-5
-1.176, -6.542e-5
-1.175, -6.536e-5
-1.174, -6.529e-5
-1.173, -6.522e-5
-1.172, -6.516e-5
-1.171, -6.508e-5
-1.170, -6.503e-5
-1.169, -6.496e-5
-1.168, -6.491e-5
-1.167, -6.484e-5
-1.166, -6.478e-5
-1.165, -6.475e-5
-1.164, -6.467e-5
-1.163, -6.462e-5
-1.162, -6.457e-5
-1.161, -6.450e-5
-1.160, -6.446e-5
-1.159, -6.441e-5
-1.158, -6.436e-5
-1.157, -6.432e-5
-1.156, -6.426e-5
-1.155, -6.422e-5
-1.154, -6.417e-5
-1.153, -6.412e-5
-1.152, -6.407e-5
-1.151, -6.401e-5
-1.150, -6.398e-5
-1.149, -6.394e-5
-1.148, -6.389e-5
-1.147, -6.385e-5
-1.146, -6.380e-5
-1.145, -6.377e-5
-1.144, -6.373e-5
-1.143, -6.369e-5
-1.142, -6.365e-5
-1.141, -6.359e-5
-1.140, -6.356e-5
-1.139, -6.354e-5
-1.138, -6.349e-5
-1.137, -6.346e-5
-1.136, -6.341e-5
-1.135, -6.338e-5
-1.134, -6.334e-5
-1.133, -6.330e-5
-1.132, -6.327e-5
-1.131, -6.323e-5
-1.130, -6.320e-5
-1.129, -6.317e-5
-1.128, -6.312e-5
-1.127, -6.309e-5
-1.126, -6.305e-5
-1.125, -6.303e-5
-1.124, -6.299e-5
-1.123, -6.296e-5
-1.122, -6.294e-5
-1.121, -6.289e-5
-1.120, -6.287e-5
-1.119, -6.283e-5
-1.118, -6.280e-5
-1.117, -6.278e-5
-1.116, -6.274e-5
-1.115, -6.272e-5
-1.114, -6.269e-5
-1.113, -6.265e-5
-1.112, -6.262e-5
-1.111, -6.258e-5
-1.110, -6.256e-5
-1.109, -6.253e-5
-1.108, -6.250e-5
-1.107, -6.247e-5
-1.106, -6.244e-5
-1.105, -6.241e-5
-1.104, -6.238e-5
-1.103, -6.235e-5
-1.102, -6.233e-5
-1.101, -6.228e-5
-1.100, -6.226e-5
-1.099, -6.223e-5
-1.098, -6.220e-5
-1.097, -6.218e-5
-1.096, -6.214e-5
-1.095, -6.211e-5
-1.094, -6.208e-5
-1.093, -6.205e-5
-1.092, -6.203e-5
-1.091, -6.199e-5
-1.090, -6.197e-5
-1.089, -6.194e-5
-1.088, -6.192e-5
-1.087, -6.188e-5
-1.086, -6.184e-5
-1.085, -6.182e-5
-1.084, -6.179e-5
-1.083, -6.175e-5
-1.082, -6.173e-5
-1.081, -6.168e-5
-1.080, -6.165e-5
-1.079, -6.162e-5
-1.078, -6.158e-5
-1.077, -6.155e-5
-1.076, -6.151e-5
-1.075, -6.148e-5
-1.074, -6.144e-5
-1.073, -6.140e-5
-1.072, -6.137e-5
-1.071, -6.132e-5
-1.070, -6.130e-5
-1.069, -6.126e-5
-1.068, -6.121e-5
-1.067, -6.117e-5
-1.066, -6.112e-5
-1.065, -6.108e-5
-1.064, -6.103e-5
-1.063, -6.100e-5
-1.062, -6.095e-5
-1.061, -6.089e-5
-1.060, -6.084e-5
-1.059, -6.079e-5
-1.058, -6.074e-5
-1.057, -6.069e-5
-1.056, -6.062e-5
-1.055, -6.057e-5
-1.054, -6.052e-5
-1.053, -6.046e-5
-1.052, -6.040e-5
-1.051, -6.033e-5
-1.050, -6.027e-5
-1.049, -6.019e-5
-1.048, -6.013e-5
-1.047, -6.006e-5
-1.046, -5.998e-5
-1.045, -5.991e-5
-1.044, -5.983e-5
-1.043, -5.974e-5
-1.042, -5.967e-5
-1.041, -5.957e-5
-1.040, -5.950e-5
-1.039, -5.939e-5
-1.038, -5.931e-5
-1.037, -5.923e-5
-1.036, -5.911e-5
-1.035, -5.902e-5
-1.034, -5.890e-5
-1.033, -5.879e-5
-1.032, -5.868e-5
-1.031, -5.856e-5
-1.030, -5.844e-5
-1.029, -5.832e-5
-1.028, -5.818e-5
-1.027, -5.806e-5
-1.026, -5.791e-5
-1.025, -5.778e-5
-1.024, -5.768e-5
-1.023, -5.750e-5
-1.022, -5.734e-5
-1.021, -5.717e-5
-1.020, -5.702e-5
-1.019, -5.683e-5
-1.018, -5.667e-5
-1.017, -5.649e-5
-1.016, -5.628e-5
-1.015, -5.612e-5
-1.014, -5.590e-5
-1.013, -5.572e-5
-1.012, -5.550e-5
-1.011, -5.530e-5
-1.010, -5.508e-5
-1.009, -5.483e-5
-1.008, -5.461e-5
-1.007, -5.436e-5
-1.006, -5.410e-5
-1.005, -5.389e-5
-1.004, -5.359e-5
-1.003, -5.332e-5
-1.002, -5.305e-5
-1.001, -5.275e-5
-1.000, -5.248e-5
-0.999, -5.213e-5
-0.998, -5.182e-5
-0.997, -5.155e-5
-0.996, -5.119e-5
-0.995, -5.090e-5
-0.994, -5.053e-5
-0.993, -5.020e-5
-0.992, -4.986e-5
-0.991, -4.947e-5
-0.990, -4.913e-5
-0.989, -4.873e-5
-0.988, -4.836e-5
-0.987, -4.795e-5
-0.986, -4.757e-5
-0.985, -4.721e-5
-0.984, -4.674e-5
-0.983, -4.630e-5
-0.982, -4.589e-5
-0.981, -4.544e-5
-0.980, -4.501e-5
-0.979, -4.450e-5
-0.978, -4.408e-5
-0.977, -4.359e-5
-0.976, -4.311e-5
-0.975, -4.265e-5
-0.974, -4.212e-5
-0.973, -4.168e-5
-0.972, -4.117e-5
-0.971, -4.062e-5
-0.970, -4.014e-5
-0.969, -3.961e-5
-0.968, -3.911e-5
-0.967, -3.855e-5
-0.966, -3.801e-5
-0.965, -3.752e-5
-0.964, -3.692e-5
-0.963, -3.642e-5
-0.962, -3.587e-5
-0.961, -3.531e-5
-0.960, -3.489e-5
-0.959, -3.425e-5
-0.958, -3.371e-5
-0.957, -3.317e-5
-0.956, -3.257e-5
-0.955, -3.206e-5
-0.954, -3.147e-5
-0.953, -3.094e-5
-0.952, -3.039e-5
-0.951, -2.981e-5
-0.950, -2.931e-5
-0.949, -2.872e-5
-0.948, -2.819e-5
-0.947, -2.756e-5
-0.946, -2.704e-5
-0.945, -2.660e-5
-0.944, -2.602e-5
-0.943, -2.554e-5
-0.942, -2.499e-5
-0.941, -2.449e-5
-0.940, -2.400e-5
-0.939, -2.347e-5
-0.938, -2.301e-5
-0.937, -2.253e-5
-0.936, -2.199e-5
-0.935, -2.160e-5
-0.934, -2.111e-5
-0.933, -2.070e-5
-0.932, -2.019e-5
-0.931, -1.972e-5
-0.930, -1.934e-5
-0.929, -1.887e-5
-0.928, -1.849e-5
-0.927, -1.807e-5
-0.926, -1.763e-5
-0.925, -1.730e-5
-0.924, -1.685e-5
-0.923, -1.649e-5
-0.922, -1.610e-5
-0.921, -1.570e-5
-0.920, -1.542e-5
-0.919, -1.501e-5
-0.918, -1.473e-5
-0.917, -1.440e-5
-0.916, -1.404e-5
-0.915, -1.376e-5
-0.914, -1.344e-5
-0.913, -1.317e-5
-0.912, -1.287e-5
-0.911, -1.257e-5
-0.910, -1.234e-5
-0.909, -1.210e-5
-0.908, -1.184e-5
-0.907, -1.158e-5
-0.906, -1.132e-5
-0.905, -1.113e-5
-0.904, -1.088e-5
-0.903, -1.066e-5
-0.902, -1.046e-5
-0.901, -1.024e-5
-0.900, -1.007e-5
-0.899, -9.852e-6
-0.898, -9.687e-6
-0.897, -9.533e-6
-0.896, -9.287e-6
-0.895, -9.174e-6
-0.894, -9.005e-6
-0.893, -8.871e-6
-0.892, -8.723e-6
-0.891, -8.577e-6
-0.890, -8.483e-6
-0.889, -8.335e-6
-0.888, -8.224e-6
-0.887, -8.113e-6
-0.886, -7.998e-6
-0.885, -7.924e-6
-0.884, -7.794e-6
-0.883, -7.741e-6
-0.882, -7.643e-6
-0.881, -7.543e-6
-0.880, -7.492e-6
-0.879, -7.393e-6
-0.878, -7.333e-6
-0.877, -7.272e-6
-0.876, -7.204e-6
-0.875, -7.155e-6
-0.874, -7.103e-6
-0.873, -7.057e-6
-0.872, -7.024e-6
-0.871, -6.968e-6
-0.870, -6.964e-6
-0.869, -6.922e-6
-0.868, -6.897e-6
-0.867, -6.874e-6
-0.866, -6.846e-6
-0.865, -6.842e-6
-0.864, -6.813e-6
-0.863, -6.801e-6
-0.862, -6.803e-6
-0.861, -6.789e-6
-0.860, -6.798e-6
-0.859, -6.775e-6
-0.858, -6.797e-6
-0.857, -6.797e-6
-0.856, -6.794e-6
-0.855, -6.808e-6
-0.854, -6.806e-6
-0.853, -6.812e-6
-0.852, -6.821e-6
-0.851, -6.831e-6
-0.850, -6.855e-6
-0.849, -6.862e-6
-0.848, -6.881e-6
-0.847, -6.889e-6
-0.846, -6.896e-6
-0.845, -6.909e-6
-0.844, -6.924e-6
-0.843, -6.941e-6
-0.842, -6.969e-6
-0.841, -6.977e-6
-0.840, -7.002e-6
-0.839, -7.011e-6
-0.838, -7.034e-6
-0.837, -7.058e-6
-0.836, -7.068e-6
-0.835, -7.092e-6
-0.834, -7.115e-6
-0.833, -7.132e-6
-0.832, -7.171e-6
-0.831, -7.169e-6
-0.830, -7.197e-6
-0.829, -7.216e-6
-0.828, -7.228e-6
-0.827, -7.258e-6
-0.826, -7.270e-6
-0.825, -7.297e-6
-0.824, -7.309e-6
-0.823, -7.328e-6
-0.822, -7.355e-6
-0.821, -7.369e-6
-0.820, -7.392e-6
-0.819, -7.429e-6
-0.818, -7.434e-6
-0.817, -7.457e-6
-0.816, -7.475e-6
-0.815, -7.501e-6
-0.814, -7.520e-6
-0.813, -7.539e-6
-0.812, -7.565e-6
-0.811, -7.578e-6
-0.810, -7.609e-6
-0.809, -7.630e-6
-0.808, -7.649e-6
-0.807, -7.676e-6
-0.806, -7.692e-6
-0.805, -7.716e-6
-0.804, -7.735e-6
-0.803, -7.752e-6
-0.802, -7.784e-6
-0.801, -7.796e-6
-0.800, -7.825e-6
-0.799, -7.848e-6
-0.798, -7.864e-6
-0.797, -7.901e-6
-0.796, -7.913e-6
-0.795, -7.942e-6
-0.794, -7.959e-6
-0.793, -7.976e-6
-0.792, -8.009e-6
-0.791, -8.022e-6
-0.790, -8.052e-6
-0.789, -8.077e-6
-0.788, -8.094e-6
-0.787, -8.119e-6
-0.786, -8.136e-6
-0.785, -8.158e-6
-0.784, -8.183e-6
-0.783, -8.195e-6
-0.782, -8.226e-6
-0.781, -8.251e-6
-0.780, -8.269e-6
-0.779, -8.292e-6
-0.778, -8.307e-6
-0.777, -8.337e-6
-0.776, -8.351e-6
-0.775, -8.374e-6
-0.774, -8.394e-6
-0.773, -8.410e-6
-0.772, -8.437e-6
-0.771, -8.447e-6
-0.770, -8.472e-6
-0.769, -8.493e-6
-0.768, -8.508e-6
-0.767, -8.535e-6
-0.766, -8.541e-6
-0.765, -8.573e-6
-0.764, -8.589e-6
-0.763, -8.605e-6
-0.762, -8.631e-6
-0.761, -8.639e-6
-0.760, -8.664e-6
-0.759, -8.680e-6
-0.758, -8.695e-6
-0.757, -8.723e-6
-0.756, -8.730e-6
-0.755, -8.755e-6
-0.754, -8.769e-6
-0.753, -8.781e-6
-0.752, -8.799e-6
-0.751, -8.810e-6
-0.750, -8.830e-6
-0.749, -8.851e-6
-0.748, -8.856e-6
-0.747, -8.879e-6
-0.746, -8.892e-6
-0.745, -8.909e-6
-0.744, -8.926e-6
-0.743, -8.926e-6
-0.742, -8.954e-6
-0.741, -8.966e-6
-0.740, -8.982e-6
-0.739, -8.996e-6
-0.738, -9.007e-6
-0.737, -9.028e-6
-0.736, -9.037e-6
-0.735, -9.052e-6
-0.734, -9.067e-6
-0.733, -9.075e-6
-0.732, -9.095e-6
-0.731, -9.099e-6
-0.730, -9.122e-6
-0.729, -9.131e-6
-0.728, -9.132e-6
-0.727, -9.152e-6
-0.726, -9.156e-6
-0.725, -9.176e-6
-0.724, -9.186e-6
-0.723, -9.192e-6
-0.722, -9.215e-6
-0.721, -9.217e-6
-0.720, -9.230e-6
-0.719, -9.242e-6
-0.718, -9.246e-6
-0.717, -9.258e-6
-0.716, -9.264e-6
-0.715, -9.276e-6
-0.714, -9.292e-6
-0.713, -9.293e-6
-0.712, -9.311e-6
-0.711, -9.316e-6
-0.710, -9.327e-6
-0.709, -9.340e-6
-0.708, -9.343e-6
-0.707, -9.358e-6
-0.706, -9.359e-6
-0.705, -9.372e-6
-0.704, -9.388e-6
-0.703, -9.382e-6
-0.702, -9.401e-6
-0.701, -9.401e-6
-0.700, -9.414e-6
-0.699, -9.419e-6
-0.698, -9.426e-6
-0.697, -9.437e-6
-0.696, -9.438e-6
-0.695, -9.449e-6
-0.694, -9.457e-6
-0.693, -9.463e-6
-0.692, -9.471e-6
-0.691, -9.464e-6
-0.690, -9.484e-6
-0.689, -9.488e-6
-0.688, -9.491e-6
-0.687, -9.505e-6
-0.686, -9.504e-6
-0.685, -9.518e-6
-0.684, -9.520e-6
-0.683, -9.521e-6
-0.682, -9.536e-6
-0.681, -9.534e-6
-0.680, -9.545e-6
-0.679, -9.553e-6
-0.678, -9.552e-6
-0.677, -9.567e-6
-0.676, -9.562e-6
-0.675, -9.565e-6
-0.674, -9.575e-6
-0.673, -9.577e-6
-0.672, -9.586e-6
-0.671, -9.584e-6
-0.670, -9.590e-6
-0.669, -9.598e-6
-0.668, -9.595e-6
-0.667, -9.603e-6
-0.666, -9.608e-6
-0.665, -9.611e-6
-0.664, -9.618e-6
-0.663, -9.614e-6
-0.662, -9.625e-6
-0.661, -9.623e-6
-0.660, -9.629e-6
-0.659, -9.633e-6
-0.658, -9.630e-6
-0.657, -9.640e-6
-0.656, -9.639e-6
-0.655, -9.642e-6
-0.654, -9.643e-6
-0.653, -9.652e-6
-0.652, -9.654e-6
-0.651, -9.649e-6
-0.650, -9.658e-6
-0.649, -9.657e-6
-0.648, -9.656e-6
-0.647, -9.665e-6
-0.646, -9.662e-6
-0.645, -9.666e-6
-0.644, -9.671e-6
-0.643, -9.664e-6
-0.642, -9.679e-6
-0.641, -9.667e-6
-0.640, -9.668e-6
-0.639, -9.676e-6
-0.638, -9.670e-6
-0.637, -9.684e-6
-0.636, -9.677e-6
-0.635, -9.679e-6
-0.634, -9.683e-6
-0.633, -9.676e-6
-0.632, -9.686e-6
-0.631, -9.679e-6
-0.630, -9.682e-6
-0.629, -9.689e-6
-0.628, -9.683e-6
-0.627, -9.692e-6
-0.626, -9.685e-6
-0.625, -9.689e-6
-0.624, -9.688e-6
-0.623, -9.683e-6
-0.622, -9.691e-6
-0.621, -9.687e-6
-0.620, -9.686e-6
-0.619, -9.686e-6
-0.618, -9.683e-6
-0.617, -9.690e-6
-0.616, -9.681e-6
-0.615, -9.693e-6
-0.614, -9.692e-6
-0.613, -9.683e-6
-0.612, -9.688e-6
-0.611, -9.678e-6
-0.610, -9.684e-6
-0.609, -9.684e-6
-0.608, -9.677e-6
-0.607, -9.685e-6
-0.606, -9.675e-6
-0.605, -9.680e-6
-0.604, -9.677e-6
-0.603, -9.670e-6
-0.602, -9.682e-6
-0.601, -9.670e-6
-0.600, -9.669e-6
-0.599, -9.670e-6
-0.598, -9.661e-6
-0.597, -9.667e-6
-0.596, -9.653e-6
-0.595, -9.656e-6
-0.594, -9.657e-6
-0.593, -9.648e-6
-0.592, -9.658e-6
-0.591, -9.645e-6
-0.590, -9.646e-6
-0.589, -9.638e-6
-0.588, -9.637e-6
-0.587, -9.641e-6
-0.586, -9.633e-6
-0.585, -9.632e-6
-0.584, -9.632e-6
-0.583, -9.622e-6
-0.582, -9.627e-6
-0.581, -9.619e-6
-0.580, -9.616e-6
-0.579, -9.614e-6
-0.578, -9.612e-6
-0.577, -9.612e-6
-0.576, -9.610e-6
-0.575, -9.603e-6
-0.574, -9.601e-6
-0.573, -9.593e-6
-0.572, -9.595e-6
-0.571, -9.583e-6
-0.570, -9.587e-6
-0.569, -9.582e-6
-0.568, -9.575e-6
-0.567, -9.575e-6
-0.566, -9.562e-6
-0.565, -9.566e-6
-0.564, -9.560e-6
-0.563, -9.551e-6
-0.562, -9.552e-6
-0.561, -9.540e-6
-0.560, -9.545e-6
-0.559, -9.533e-6
-0.558, -9.524e-6
-0.557, -9.532e-6
-0.556, -9.517e-6
-0.555, -9.515e-6
-0.554, -9.515e-6
-0.553, -9.503e-6
-0.552, -9.507e-6
-0.551, -9.498e-6
-0.550, -9.495e-6
-0.549, -9.491e-6
-0.548, -9.476e-6
-0.547, -9.481e-6
-0.546, -9.466e-6
-0.545, -9.463e-6
-0.544, -9.461e-6
-0.543, -9.450e-6
-0.542, -9.450e-6
-0.541, -9.442e-6
-0.540, -9.438e-6
-0.539, -9.433e-6
-0.538, -9.418e-6
-0.537, -9.422e-6
-0.536, -9.411e-6
-0.535, -9.409e-6
-0.534, -9.404e-6
-0.533, -9.395e-6
-0.532, -9.396e-6
-0.531, -9.381e-6
-0.530, -9.378e-6
-0.529, -9.373e-6
-0.528, -9.361e-6
-0.527, -9.360e-6
-0.526, -9.349e-6
-0.525, -9.354e-6
-0.524, -9.343e-6
-0.523, -9.330e-6
-0.522, -9.334e-6
-0.521, -9.319e-6
-0.520, -9.315e-6
-0.519, -9.305e-6
-0.518, -9.296e-6
-0.517, -9.299e-6
-0.516, -9.282e-6
-0.515, -9.277e-6
-0.514, -9.274e-6
-0.513, -9.260e-6
-0.512, -9.256e-6
-0.511, -9.241e-6
-0.510, -9.239e-6
-0.509, -9.235e-6
-0.508, -9.222e-6
-0.507, -9.218e-6
-0.506, -9.209e-6
-0.505, -9.201e-6
-0.504, -9.198e-6
-0.503, -9.182e-6
-0.502, -9.178e-6
-0.501, -9.169e-6
-0.500, -9.162e-6
-0.499, -9.156e-6
-0.498, -9.141e-6
-0.497, -9.145e-6
-0.496, -9.125e-6
-0.495, -9.118e-6
-0.494, -9.111e-6
-0.493, -9.100e-6
-0.492, -9.094e-6
-0.491, -9.075e-6
-0.490, -9.073e-6
-0.489, -9.064e-6
-0.488, -9.046e-6
-0.487, -9.036e-6
-0.486, -9.018e-6
-0.485, -9.018e-6
-0.484, -9.010e-6
-0.483, -8.991e-6
-0.482, -8.992e-6
-0.481, -8.974e-6
-0.480, -8.971e-6
-0.479, -8.956e-6
-0.478, -8.942e-6
-0.477, -8.941e-6
-0.476, -8.919e-6
-0.475, -8.910e-6
-0.474, -8.908e-6
-0.473, -8.887e-6
-0.472, -8.881e-6
-0.471, -8.863e-6
-0.470, -8.852e-6
-0.469, -8.844e-6
-0.468, -8.822e-6
-0.467, -8.820e-6
-0.466, -8.798e-6
-0.465, -8.788e-6
-0.464, -8.778e-6
-0.463, -8.758e-6
-0.462, -8.752e-6
-0.461, -8.739e-6
-0.460, -8.724e-6
-0.459, -8.711e-6
-0.458, -8.694e-6
-0.457, -8.684e-6
-0.456, -8.664e-6
-0.455, -8.653e-6
-0.454, -8.640e-6
-0.453, -8.623e-6
-0.452, -8.617e-6
-0.451, -8.594e-6
-0.450, -8.583e-6
-0.449, -8.566e-6
-0.448, -8.556e-6
-0.447, -8.541e-6
-0.446, -8.516e-6
-0.445, -8.506e-6
-0.444, -8.490e-6
-0.443, -8.469e-6
-0.442, -8.461e-6
-0.441, -8.438e-6
-0.440, -8.423e-6
-0.439, -8.403e-6
-0.438, -8.385e-6
-0.437, -8.375e-6
-0.436, -8.349e-6
-0.435, -8.328e-6
-0.434, -8.319e-6
-0.433, -8.295e-6
-0.432, -8.284e-6
-0.431, -8.261e-6
-0.430, -8.245e-6
-0.429, -8.234e-6
-0.428, -8.204e-6
-0.427, -8.194e-6
-0.426, -8.171e-6
-0.425, -8.154e-6
-0.424, -8.134e-6
-0.423, -8.119e-6
-0.422, -8.105e-6
-0.421, -8.077e-6
-0.420, -8.057e-6
-0.419, -8.036e-6
-0.418, -8.014e-6
-0.417, -8.001e-6
-0.416, -7.973e-6
-0.415, -7.952e-6
-0.414, -7.932e-6
-0.413, -7.908e-6
-0.412, -7.895e-6
-0.411, -7.860e-6
-0.410, -7.870e-6
-0.409, -7.836e-6
-0.408, -7.807e-6
-0.407, -7.787e-6
-0.406, -7.759e-6
-0.405, -7.741e-6
-0.404, -7.717e-6
-0.403, -7.688e-6
-0.402, -7.674e-6
-0.401, -7.649e-6
-0.400, -7.625e-6
-0.399, -7.600e-6
-0.398, -7.570e-6
-0.397, -7.564e-6
-0.396, -7.524e-6
-0.395, -7.501e-6
-0.394, -7.479e-6
-0.393, -7.450e-6
-0.392, -7.433e-6
-0.391, -7.398e-6
-0.390, -7.379e-6
-0.389, -7.358e-6
-0.388, -7.323e-6
-0.387, -7.305e-6
-0.386, -7.276e-6
-0.385, -7.251e-6
-0.384, -7.217e-6
-0.383, -7.190e-6
-0.382, -7.171e-6
-0.381, -7.141e-6
-0.380, -7.117e-6
-0.379, -7.088e-6
-0.378, -7.060e-6
-0.377, -7.039e-6
-0.376, -7.002e-6
-0.375, -6.975e-6
-0.374, -6.951e-6
-0.373, -6.918e-6
-0.372, -6.897e-6
-0.371, -6.865e-6
-0.370, -6.838e-6
-0.369, -6.809e-6
-0.368, -6.776e-6
-0.367, -6.752e-6
-0.366, -6.717e-6
-0.365, -6.695e-6
-0.364, -6.664e-6
-0.363, -6.633e-6
-0.362, -6.610e-6
-0.361, -6.572e-6
-0.360, -6.543e-6
-0.359, -6.513e-6
-0.358, -6.480e-6
-0.357, -6.455e-6
-0.356, -6.419e-6
-0.355, -6.393e-6
-0.354, -6.363e-6
-0.353, -6.328e-6
-0.352, -6.304e-6
-0.351, -6.265e-6
-0.350, -6.237e-6
-0.349, -6.211e-6
-0.348, -6.176e-6
-0.347, -6.149e-6
-0.346, -6.115e-6
-0.345, -6.085e-6
-0.344, -6.052e-6
-0.343, -6.012e-6
-0.342, -5.989e-6
-0.341, -5.953e-6
-0.340, -5.922e-6
-0.339, -5.893e-6
-0.338, -5.857e-6
-0.337, -5.833e-6
-0.336, -5.794e-6
-0.335, -5.764e-6
-0.334, -5.731e-6
-0.333, -5.687e-6
-0.332, -5.662e-6
-0.331, -5.624e-6
-0.330, -5.595e-6
-0.329, -5.563e-6
-0.328, -5.524e-6
-0.327, -5.499e-6
-0.326, -5.459e-6
-0.325, -5.429e-6
-0.324, -5.396e-6
-0.323, -5.360e-6
-0.322, -5.334e-6
-0.321, -5.290e-6
-0.320, -5.270e-6
-0.319, -5.230e-6
-0.318, -5.196e-6
-0.317, -5.170e-6
-0.316, -5.124e-6
-0.315, -5.091e-6
-0.314, -5.064e-6
-0.313, -5.024e-6
-0.312, -4.996e-6
-0.311, -4.952e-6
-0.310, -4.924e-6
-0.309, -4.891e-6
-0.308, -4.849e-6
-0.307, -4.815e-6
-0.306, -4.781e-6
-0.305, -4.748e-6
-0.304, -4.722e-6
-0.303, -4.682e-6
-0.302, -4.652e-6
-0.301, -4.611e-6
-0.300, -4.577e-6
-0.299, -4.545e-6
-0.298, -4.508e-6
-0.297, -4.482e-6
-0.296, -4.443e-6
-0.295, -4.411e-6
-0.294, -4.382e-6
-0.293, -4.346e-6
-0.292, -4.316e-6
-0.291, -4.274e-6
-0.290, -4.245e-6
-0.289, -4.216e-6
-0.288, -4.175e-6
-0.287, -4.142e-6
-0.286, -4.104e-6
-0.285, -4.079e-6
-0.284, -4.052e-6
-0.283, -4.013e-6
-0.282, -3.979e-6
-0.281, -3.940e-6
-0.280, -3.911e-6
-0.279, -3.880e-6
-0.278, -3.842e-6
-0.277, -3.815e-6
-0.276, -3.773e-6
-0.275, -3.748e-6
-0.274, -3.717e-6
-0.273, -3.675e-6
-0.272, -3.651e-6
-0.271, -3.610e-6
-0.270, -3.581e-6
-0.269, -3.553e-6
-0.268, -3.516e-6
-0.267, -3.490e-6
-0.266, -3.454e-6
-0.265, -3.422e-6
-0.264, -3.388e-6
-0.263, -3.355e-6
-0.262, -3.328e-6
-0.261, -3.291e-6
-0.260, -3.260e-6
-0.259, -3.233e-6
-0.258, -3.193e-6
-0.257, -3.170e-6
-0.256, -3.134e-6
-0.255, -3.101e-6
-0.254, -3.074e-6
-0.253, -3.043e-6
-0.252, -3.013e-6
-0.251, -2.975e-6
-0.250, -2.952e-6
-0.249, -2.920e-6
-0.248, -2.883e-6
-0.247, -2.858e-6
-0.246, -2.823e-6
-0.245, -2.797e-6
-0.244, -2.771e-6
-0.243, -2.739e-6
-0.242, -2.714e-6
-0.241, -2.676e-6
-0.240, -2.654e-6
-0.239, -2.623e-6
-0.238, -2.588e-6
-0.237, -2.567e-6
-0.236, -2.532e-6
-0.235, -2.505e-6
-0.234, -2.479e-6
-0.233, -2.446e-6
-0.232, -2.425e-6
-0.231, -2.385e-6
-0.230, -2.358e-6
-0.229, -2.336e-6
-0.228, -2.303e-6
-0.227, -2.284e-6
-0.226, -2.250e-6
-0.225, -2.225e-6
-0.224, -2.199e-6
-0.223, -2.166e-6
-0.222, -2.148e-6
-0.221, -2.114e-6
-0.220, -2.087e-6
-0.219, -2.066e-6
-0.218, -2.042e-6
-0.217, -2.018e-6
-0.216, -1.986e-6
-0.215, -1.963e-6
-0.214, -1.940e-6
-0.213, -1.913e-6
-0.212, -1.891e-6
-0.211, -1.858e-6
-0.210, -1.836e-6
-0.209, -1.813e-6
-0.208, -1.785e-6
-0.207, -1.766e-6
-0.206, -1.733e-6
-0.205, -1.729e-6
-0.204, -1.695e-6
-0.203, -1.665e-6
-0.202, -1.651e-6
-0.201, -1.617e-6
-0.200, -1.593e-6
-0.199, -1.572e-6
-0.198, -1.547e-6
-0.197, -1.530e-6
-0.196, -1.495e-6
-0.195, -1.473e-6
-0.194, -1.455e-6
-0.193, -1.427e-6
-0.192, -1.418e-6
-0.191, -1.380e-6
-0.190, -1.362e-6
-0.189, -1.344e-6
-0.188, -1.318e-6
-0.187, -1.296e-6
-0.186, -1.272e-6
-0.185, -1.254e-6
-0.184, -1.233e-6
-0.183, -1.204e-6
-0.182, -1.191e-6
-0.181, -1.163e-6
-0.180, -1.140e-6
-0.179, -1.114e-6
-0.178, -1.095e-6
-0.177, -1.081e-6
-0.176, -1.055e-6
-0.175, -1.036e-6
-0.174, -1.016e-6
-0.173, -9.922e-7
-0.172, -9.741e-7
-0.171, -9.463e-7
-0.170, -9.312e-7
-0.169, -9.137e-7
-0.168, -8.874e-7
-0.167, -8.790e-7
-0.166, -8.523e-7
-0.165, -8.392e-7
-0.164, -8.169e-7
-0.163, -7.900e-7
-0.162, -7.793e-7
-0.161, -7.514e-7
-0.160, -7.339e-7
-0.159, -7.176e-7
-0.158, -6.928e-7
-0.157, -6.830e-7
-0.156, -6.550e-7
-0.155, -6.388e-7
-0.154, -6.262e-7
-0.153, -5.993e-7
-0.152, -5.864e-7
-0.151, -5.641e-7
-0.150, -5.456e-7
-0.149, -5.308e-7
-0.148, -5.056e-7
-0.147, -4.947e-7
-0.146, -4.723e-7
-0.145, -4.571e-7
-0.144, -4.419e-7
-0.143, -4.156e-7
-0.142, -4.060e-7
-0.141, -3.861e-7
-0.140, -3.656e-7
-0.139, -3.519e-7
-0.138, -3.303e-7
-0.137, -3.187e-7
-0.136, -2.933e-7
-0.135, -2.771e-7
-0.134, -2.614e-7
-0.133, -2.413e-7
-0.132, -2.293e-7
-0.131, -2.030e-7
-0.130, -1.913e-7
-0.129, -1.749e-7
-0.128, -1.463e-7
-0.127, -1.378e-7
-0.126, -1.165e-7
-0.125, -1.025e-7
-0.124, -8.574e-8
-0.123, -6.225e-8
-0.122, -5.602e-8
-0.121, -2.736e-8
-0.120, -1.431e-8
-0.119, 2.163e-9
-0.118, 2.117e-8
-0.117, 2.935e-8
-0.116, 5.099e-8
-0.115, 6.288e-8
-0.114, 8.003e-8
-0.113, 1.030e-7
-0.112, 1.134e-7
-0.111, 1.360e-7
-0.110, 1.474e-7
-0.109, 1.589e-7
-0.108, 1.808e-7
-0.107, 1.907e-7
-0.106, 2.114e-7
-0.105, 2.286e-7
-0.104, 2.426e-7
-0.103, 2.688e-7
-0.102, 2.731e-7
-0.101, 2.943e-7
-0.100, 3.112e-7
-0.099, 3.229e-7
-0.098, 3.420e-7
-0.097, 3.542e-7
-0.096, 3.757e-7
-0.095, 3.865e-7
-0.094, 3.994e-7
-0.093, 4.150e-7
-0.092, 4.275e-7
-0.091, 4.532e-7
-0.090, 4.585e-7
-0.089, 4.763e-7
-0.088, 4.965e-7
-0.087, 5.075e-7
-0.086, 5.260e-7
-0.085, 5.371e-7
-0.084, 5.527e-7
-0.083, 5.733e-7
-0.082, 5.821e-7
-0.081, 6.030e-7
-0.080, 6.138e-7
-0.079, 6.263e-7
-0.078, 6.462e-7
-0.077, 6.594e-7
-0.076, 6.786e-7
-0.075, 6.914e-7
-0.074, 7.032e-7
-0.073, 7.239e-7
-0.072, 7.303e-7
-0.071, 7.521e-7
-0.070, 7.658e-7
-0.069, 7.752e-7
-0.068, 7.973e-7
-0.067, 8.020e-7
-0.066, 8.246e-7
-0.065, 8.377e-7
-0.064, 8.401e-7
-0.063, 8.678e-7
-0.062, 8.739e-7
-0.061, 8.915e-7
-0.060, 9.050e-7
-0.059, 9.181e-7
-0.058, 9.383e-7
-0.057, 9.415e-7
-0.056, 9.630e-7
-0.055, 9.776e-7
-0.054, 9.840e-7
-0.053, 1.005e-6
-0.052, 1.013e-6
-0.051, 1.031e-6
-0.050, 1.044e-6
-0.049, 1.055e-6
-0.048, 1.072e-6
-0.047, 1.081e-6
-0.046, 1.101e-6
-0.045, 1.108e-6
-0.044, 1.120e-6
-0.043, 1.138e-6
-0.042, 1.144e-6
-0.041, 1.166e-6
-0.040, 1.177e-6
-0.039, 1.186e-6
-0.038, 1.206e-6
-0.037, 1.209e-6
-0.036, 1.234e-6
-0.035, 1.242e-6
-0.034, 1.253e-6
-0.033, 1.271e-6
-0.032, 1.274e-6
-0.031, 1.299e-6
-0.030, 1.308e-6
-0.029, 1.315e-6
-0.028, 1.335e-6
-0.027, 1.343e-6
-0.026, 1.362e-6
-0.025, 1.373e-6
-0.024, 1.378e-6
-0.023, 1.401e-6
-0.022, 1.403e-6
-0.021, 1.421e-6
-0.020, 1.433e-6
-0.019, 1.443e-6
-0.018, 1.460e-6
-0.017, 1.466e-6
-0.016, 1.482e-6
-0.015, 1.495e-6
-0.014, 1.500e-6
-0.013, 1.512e-6
-0.012, 1.521e-6
-0.011, 1.544e-6
-0.010, 1.552e-6
-0.009, 1.563e-6
-0.008, 1.578e-6
-0.007, 1.584e-6
-0.006, 1.600e-6
-0.005, 1.608e-6
-0.004, 1.618e-6
-0.003, 1.634e-6
-0.002, 1.638e-6
-0.001, 1.658e-6
-0.000, 1.646e-6
0.001, 1.672e-6
0.002, 1.692e-6
0.003, 1.693e-6
0.004, 1.715e-6
0.005, 1.724e-6
0.006, 1.731e-6
0.007, 1.749e-6
0.008, 1.754e-6
0.009, 1.771e-6
0.010, 1.780e-6
0.011, 1.790e-6
0.012, 1.808e-6
0.013, 1.806e-6
0.014, 1.825e-6
0.015, 1.834e-6
0.016, 1.843e-6
0.017, 1.861e-6
0.018, 1.862e-6
0.019, 1.878e-6
0.020, 1.888e-6
0.021, 1.900e-6
0.022, 1.913e-6
0.023, 1.917e-6
0.024, 1.934e-6
0.025, 1.947e-6
0.026, 1.953e-6
0.027, 1.966e-6
0.028, 1.972e-6
0.029, 1.987e-6
0.030, 1.994e-6
0.031, 2.002e-6
0.032, 2.021e-6
0.033, 2.026e-6
0.034, 2.042e-6
0.035, 2.049e-6
0.036, 2.058e-6
0.037, 2.076e-6
0.038, 2.071e-6
0.039, 2.090e-6
0.040, 2.097e-6
0.041, 2.107e-6
0.042, 2.124e-6
0.043, 2.126e-6
0.044, 2.150e-6
0.045, 2.158e-6
0.046, 2.166e-6
0.047, 2.180e-6
0.048, 2.185e-6
0.049, 2.198e-6
0.050, 2.208e-6
0.051, 2.211e-6
0.052, 2.230e-6
0.053, 2.236e-6
0.054, 2.247e-6
0.055, 2.260e-6
0.056, 2.265e-6
0.057, 2.283e-6
0.058, 2.288e-6
0.059, 2.301e-6
0.060, 2.311e-6
0.061, 2.319e-6
0.062, 2.333e-6
0.063, 2.336e-6
0.064, 2.346e-6
0.065, 2.360e-6
0.066, 2.365e-6
0.067, 2.384e-6
0.068, 2.388e-6
0.069, 2.408e-6
0.070, 2.411e-6
0.071, 2.422e-6
0.072, 2.436e-6
0.073, 2.441e-6
0.074, 2.458e-6
0.075, 2.465e-6
0.076, 2.478e-6
0.077, 2.496e-6
0.078, 2.493e-6
0.079, 2.511e-6
0.080, 2.517e-6
0.081, 2.529e-6
0.082, 2.543e-6
0.083, 2.542e-6
0.084, 2.564e-6
0.085, 2.570e-6
0.086, 2.577e-6
0.087, 2.591e-6
0.088, 2.595e-6
0.089, 2.608e-6
0.090, 2.618e-6
0.091, 2.625e-6
0.092, 2.645e-6
0.093, 2.649e-6
0.094, 2.665e-6
0.095, 2.675e-6
0.096, 2.680e-6
0.097, 2.696e-6
0.098, 2.699e-6
0.099, 2.714e-6
0.100, 2.721e-6
0.101, 2.734e-6
0.102, 2.752e-6
0.103, 2.753e-6
0.104, 2.767e-6
0.105, 2.777e-6
0.106, 2.784e-6
0.107, 2.796e-6
0.108, 2.803e-6
0.109, 2.817e-6
0.110, 2.826e-6
0.111, 2.832e-6
0.112, 2.848e-6
0.113, 2.852e-6
0.114, 2.866e-6
0.115, 2.868e-6
0.116, 2.882e-6
0.117, 2.898e-6
0.118, 2.900e-6
0.119, 2.918e-6
0.120, 2.925e-6
0.121, 2.934e-6
0.122, 2.946e-6
0.123, 2.951e-6
0.124, 2.967e-6
0.125, 2.975e-6
0.126, 2.980e-6
0.127, 3.001e-6
0.128, 3.010e-6
0.129, 3.021e-6
0.130, 3.028e-6
0.131, 3.035e-6
0.132, 3.050e-6
0.133, 3.053e-6
0.134, 3.064e-6
0.135, 3.073e-6
0.136, 3.080e-6
0.137, 3.096e-6
0.138, 3.098e-6
0.139, 3.114e-6
0.140, 3.125e-6
0.141, 3.128e-6
0.142, 3.148e-6
0.143, 3.149e-6
0.144, 3.168e-6
0.145, 3.178e-6
0.146, 3.183e-6
0.147, 3.197e-6
0.148, 3.203e-6
0.149, 3.219e-6
0.150, 3.224e-6
0.151, 3.233e-6
0.152, 3.249e-6
0.153, 3.250e-6
0.154, 3.267e-6
0.155, 3.273e-6
0.156, 3.282e-6
0.157, 3.296e-6
0.158, 3.299e-6
0.159, 3.313e-6
0.160, 3.318e-6
0.161, 3.327e-6
0.162, 3.343e-6
0.163, 3.342e-6
0.164, 3.359e-6
0.165, 3.365e-6
0.166, 3.368e-6
0.167, 3.384e-6
0.168, 3.389e-6
0.169, 3.404e-6
0.170, 3.412e-6
0.171, 3.416e-6
0.172, 3.432e-6
0.173, 3.434e-6
0.174, 3.448e-6
0.175, 3.454e-6
0.176, 3.459e-6
0.177, 3.475e-6
0.178, 3.477e-6
0.179, 3.500e-6
0.180, 3.504e-6
0.181, 3.510e-6
0.182, 3.524e-6
0.183, 3.527e-6
0.184, 3.540e-6
0.185, 3.548e-6
0.186, 3.552e-6
0.187, 3.566e-6
0.188, 3.566e-6
0.189, 3.582e-6
0.190, 3.587e-6
0.191, 3.595e-6
0.192, 3.603e-6
0.193, 3.609e-6
0.194, 3.623e-6
0.195, 3.628e-6
0.196, 3.643e-6
0.197, 3.653e-6
0.198, 3.653e-6
0.199, 3.667e-6
0.200, 3.672e-6
0.201, 3.683e-6
0.202, 3.694e-6
0.203, 3.692e-6
0.204, 3.707e-6
0.205, 3.701e-6
0.206, 3.715e-6
0.207, 3.729e-6
0.208, 3.733e-6
0.209, 3.747e-6
0.210, 3.752e-6
0.211, 3.755e-6
0.212, 3.774e-6
0.213, 3.776e-6
0.214, 3.787e-6
0.215, 3.794e-6
0.216, 3.801e-6
0.217, 3.812e-6
0.218, 3.812e-6
0.219, 3.828e-6
0.220, 3.839e-6
0.221, 3.847e-6
0.222, 3.860e-6
0.223, 3.864e-6
0.224, 3.877e-6
0.225, 3.886e-6
0.226, 3.892e-6
0.227, 3.907e-6
0.228, 3.911e-6
0.229, 3.929e-6
0.230, 3.941e-6
0.231, 3.945e-6
0.232, 3.961e-6
0.233, 3.963e-6
0.234, 3.983e-6
0.235, 3.985e-6
0.236, 3.998e-6
0.237, 4.016e-6
0.238, 4.017e-6
0.239, 4.033e-6
0.240, 4.041e-6
0.241, 4.053e-6
0.242, 4.072e-6
0.243, 4.063e-6
0.244, 4.097e-6
0.245, 4.109e-6
0.246, 4.118e-6
0.247, 4.142e-6
0.248, 4.150e-6
0.249, 4.172e-6
0.250, 4.181e-6
0.251, 4.197e-6
0.252, 4.223e-6
0.253, 4.230e-6
0.254, 4.256e-6
0.255, 4.269e-6
0.256, 4.279e-6
0.257, 4.307e-6
0.258, 4.321e-6
0.259, 4.343e-6
0.260, 4.364e-6
0.261, 4.385e-6
0.262, 4.409e-6
0.263, 4.424e-6
0.264, 4.455e-6
0.265, 4.478e-6
0.266, 4.510e-6
0.267, 4.536e-6
0.268, 4.559e-6
0.269, 4.589e-6
0.270, 4.614e-6
0.271, 4.655e-6
0.272, 4.687e-6
0.273, 4.717e-6
0.274, 4.758e-6
0.275, 4.783e-6
0.276, 4.829e-6
0.277, 4.871e-6
0.278, 4.899e-6
0.279, 4.952e-6
0.280, 4.985e-6
0.281, 5.042e-6
0.282, 5.092e-6
0.283, 5.124e-6
0.284, 5.191e-6
0.285, 5.232e-6
0.286, 5.284e-6
0.287, 5.346e-6
0.288, 5.389e-6
0.289, 5.468e-6
0.290, 5.517e-6
0.291, 5.581e-6
0.292, 5.659e-6
0.293, 5.716e-6
0.294, 5.781e-6
0.295, 5.851e-6
0.296, 5.930e-6
0.297, 6.022e-6
0.298, 6.093e-6
0.299, 6.187e-6
0.300, 6.271e-6
0.301, 6.369e-6
0.302, 6.466e-6
0.303, 6.555e-6
0.304, 6.672e-6
0.305, 6.772e-6
0.306, 6.890e-6
0.307, 7.021e-6
0.308, 7.127e-6
0.309, 7.267e-6
0.310, 7.374e-6
0.311, 7.515e-6
0.312, 7.662e-6
0.313, 7.805e-6
0.314, 7.968e-6
0.315, 8.098e-6
0.316, 8.280e-6
0.317, 8.448e-6
0.318, 8.597e-6
0.319, 8.809e-6
0.320, 8.923e-6
0.321, 9.168e-6
0.322, 9.369e-6
0.323, 9.546e-6
0.324, 9.794e-6
0.325, 9.994e-6
0.326, 1.023e-5
0.327, 1.048e-5
0.328, 1.070e-5
0.329, 1.100e-5
0.330, 1.122e-5
0.331, 1.151e-5
0.332, 1.180e-5
0.333, 1.215e-5
0.334, 1.245e-5
0.335, 1.273e-5
0.336, 1.307e-5
0.337, 1.344e-5
0.338, 1.373e-5
0.339, 1.413e-5
0.340, 1.448e-5
0.341, 1.491e-5
0.342, 1.530e-5
0.343, 1.570e-5
0.344, 1.615e-5
0.345, 1.653e-5
0.346, 1.702e-5
0.347, 1.749e-5
0.348, 1.797e-5
0.349, 1.855e-5
0.350, 1.898e-5
0.351, 1.959e-5
0.352, 2.009e-5
0.353, 2.067e-5
0.354, 2.136e-5
0.355, 2.184e-5
0.356, 2.257e-5
0.357, 2.321e-5
0.358, 2.379e-5
0.359, 2.459e-5
0.360, 2.520e-5
0.361, 2.608e-5
0.362, 2.677e-5
0.363, 2.745e-5
0.364, 2.837e-5
0.365, 2.911e-5
0.366, 3.000e-5
0.367, 3.087e-5
0.368, 3.163e-5
0.369, 3.271e-5
0.370, 3.351e-5
0.371, 3.440e-5
0.372, 3.543e-5
0.373, 3.638e-5
0.374, 3.755e-5
0.375, 3.845e-5
0.376, 3.961e-5
0.377, 4.074e-5
0.378, 4.177e-5
0.379, 4.301e-5
0.380, 4.402e-5
0.381, 4.538e-5
0.382, 4.656e-5
0.383, 4.773e-5
0.384, 4.933e-5
0.385, 5.032e-5
0.386, 5.173e-5
0.387, 5.290e-5
0.388, 5.417e-5
0.389, 5.569e-5
0.390, 5.665e-5
0.391, 5.845e-5
0.392, 5.952e-5
0.393, 6.097e-5
0.394, 6.253e-5
0.395, 6.357e-5
0.396, 6.523e-5
0.397, 6.607e-5
0.398, 6.776e-5
0.399, 6.952e-5
0.400, 7.057e-5
0.401, 7.236e-5
0.402, 7.359e-5
0.403, 7.487e-5
0.404, 7.655e-5
0.405, 7.758e-5
0.406, 7.926e-5
0.407, 8.052e-5
0.408, 8.184e-5
0.409, 8.305e-5
0.410, 8.284e-5
0.411, 8.529e-5
0.412, 8.660e-5
0.413, 8.781e-5
0.414, 8.943e-5
0.415, 9.029e-5
0.416, 9.172e-5
0.417, 9.280e-5
0.418, 9.392e-5
0.419, 9.519e-5
0.420, 9.599e-5
0.421, 9.728e-5
0.422, 9.797e-5
0.423, 9.894e-5
0.424, 1.000e-4
0.425, 1.007e-4
0.426, 1.020e-4
0.427, 1.025e-4
0.428, 1.033e-4
0.429, 1.041e-4
0.430, 1.046e-4
0.431, 1.055e-4
0.432, 1.058e-4
0.433, 1.064e-4
0.434, 1.071e-4
0.435, 1.076e-4
0.436, 1.083e-4
0.437, 1.083e-4
0.438, 1.087e-4
0.439, 1.092e-4
0.440, 1.091e-4
0.441, 1.097e-4
0.442, 1.097e-4
0.443, 1.097e-4
0.444, 1.101e-4
0.445, 1.099e-4
0.446, 1.102e-4
0.447, 1.101e-4
0.448, 1.098e-4
0.449, 1.101e-4
0.450, 1.098e-4
0.451, 1.099e-4
0.452, 1.097e-4
0.453, 1.095e-4
0.454, 1.095e-4
0.455, 1.091e-4
0.456, 1.090e-4
0.457, 1.088e-4
0.458, 1.084e-4
0.459, 1.082e-4
0.460, 1.078e-4
0.461, 1.075e-4
0.462, 1.072e-4
0.463, 1.067e-4
0.464, 1.064e-4
0.465, 1.060e-4
0.466, 1.057e-4
0.467, 1.052e-4
0.468, 1.047e-4
0.469, 1.044e-4
0.470, 1.038e-4
0.471, 1.035e-4
0.472, 1.030e-4
0.473, 1.025e-4
0.474, 1.020e-4
0.475, 1.014e-4
0.476, 1.011e-4
0.477, 1.006e-4
0.478, 1.000e-4
0.479, 9.964e-5
0.480, 9.904e-5
0.481, 9.864e-5
0.482, 9.810e-5
0.483, 9.752e-5
0.484, 9.713e-5
0.485, 9.652e-5
0.486, 9.615e-5
0.487, 9.567e-5
0.488, 9.507e-5
0.489, 9.465e-5
0.490, 9.408e-5
0.491, 9.360e-5
0.492, 9.310e-5
0.493, 9.258e-5
0.494, 9.216e-5
0.495, 9.160e-5
0.496, 9.115e-5
0.497, 9.069e-5
0.498, 9.018e-5
0.499, 8.968e-5
0.500, 8.922e-5
0.501, 8.880e-5
0.502, 8.834e-5
0.503, 8.786e-5
0.504, 8.744e-5
0.505, 8.698e-5
0.506, 8.657e-5
0.507, 8.612e-5
0.508, 8.566e-5
0.509, 8.529e-5
0.510, 8.482e-5
0.511, 8.443e-5
0.512, 8.406e-5
0.513, 8.363e-5
0.514, 8.325e-5
0.515, 8.281e-5
0.516, 8.244e-5
0.517, 8.206e-5
0.518, 8.166e-5
0.519, 8.130e-5
0.520, 8.091e-5
0.521, 8.057e-5
0.522, 8.019e-5
0.523, 7.981e-5
0.524, 7.950e-5
0.525, 7.911e-5
0.526, 7.878e-5
0.527, 7.846e-5
0.528, 7.810e-5
0.529, 7.780e-5
0.530, 7.746e-5
0.531, 7.714e-5
0.532, 7.685e-5
0.533, 7.652e-5
0.534, 7.623e-5
0.535, 7.592e-5
0.536, 7.563e-5
0.537, 7.536e-5
0.538, 7.505e-5
0.539, 7.477e-5
0.540, 7.448e-5
0.541, 7.421e-5
0.542, 7.393e-5
0.543, 7.365e-5
0.544, 7.341e-5
0.545, 7.314e-5
0.546, 7.288e-5
0.547, 7.263e-5
0.548, 7.237e-5
0.549, 7.215e-5
0.550, 7.188e-5
0.551, 7.165e-5
0.552, 7.143e-5
0.553, 7.118e-5
0.554, 7.097e-5
0.555, 7.072e-5
0.556, 7.051e-5
0.557, 7.029e-5
0.558, 7.005e-5
0.559, 6.985e-5
0.560, 6.963e-5
0.561, 6.943e-5
0.562, 6.923e-5
0.563, 6.901e-5
0.564, 6.883e-5
0.565, 6.863e-5
0.566, 6.843e-5
0.567, 6.825e-5
0.568, 6.806e-5
0.569, 6.788e-5
0.570, 6.769e-5
0.571, 6.751e-5
0.572, 6.734e-5
0.573, 6.716e-5
0.574, 6.698e-5
0.575, 6.681e-5
0.576, 6.662e-5
0.577, 6.647e-5
0.578, 6.630e-5
0.579, 6.613e-5
0.580, 6.598e-5
0.581, 6.582e-5
0.582, 6.566e-5
0.583, 6.550e-5
0.584, 6.537e-5
0.585, 6.522e-5
0.586, 6.507e-5
0.587, 6.493e-5
0.588, 6.479e-5
0.589, 6.466e-5
0.590, 6.451e-5
0.591, 6.436e-5
0.592, 6.423e-5
0.593, 6.409e-5
0.594, 6.396e-5
0.595, 6.382e-5
0.596, 6.369e-5
0.597, 6.357e-5
0.598, 6.343e-5
0.599, 6.332e-5
0.600, 6.319e-5
0.601, 6.306e-5
0.602, 6.295e-5
0.603, 6.282e-5
0.604, 6.272e-5
0.605, 6.261e-5
0.606, 6.249e-5
0.607, 6.238e-5
0.608, 6.225e-5
0.609, 6.215e-5
0.610, 6.203e-5
0.611, 6.192e-5
0.612, 6.182e-5
0.613, 6.170e-5
0.614, 6.158e-5
0.615, 6.149e-5
0.616, 6.138e-5
0.617, 6.129e-5
0.618, 6.119e-5
0.619, 6.109e-5
0.620, 6.100e-5
0.621, 6.090e-5
0.622, 6.081e-5
0.623, 6.071e-5
0.624, 6.063e-5
0.625, 6.054e-5
0.626, 6.044e-5
0.627, 6.035e-5
0.628, 6.026e-5
0.629, 6.018e-5
0.630, 6.008e-5
0.631, 6.000e-5
0.632, 5.991e-5
0.633, 5.982e-5
0.634, 5.975e-5
0.635, 5.966e-5
0.636, 5.958e-5
0.637, 5.951e-5
0.638, 5.942e-5
0.639, 5.935e-5
0.640, 5.928e-5
0.641, 5.919e-5
0.642, 5.912e-5
0.643, 5.903e-5
0.644, 5.897e-5
0.645, 5.889e-5
0.646, 5.881e-5
0.647, 5.875e-5
0.648, 5.867e-5
0.649, 5.860e-5
0.650, 5.853e-5
0.651, 5.845e-5
0.652, 5.839e-5
0.653, 5.830e-5
0.654, 5.825e-5
0.655, 5.818e-5
0.656, 5.811e-5
0.657, 5.806e-5
0.658, 5.798e-5
0.659, 5.792e-5
0.660, 5.786e-5
0.661, 5.779e-5
0.662, 5.774e-5
0.663, 5.766e-5
0.664, 5.762e-5
0.665, 5.755e-5
0.666, 5.748e-5
0.667, 5.743e-5
0.668, 5.736e-5
0.669, 5.731e-5
0.670, 5.725e-5
0.671, 5.718e-5
0.672, 5.713e-5
0.673, 5.707e-5
0.674, 5.702e-5
0.675, 5.696e-5
0.676, 5.691e-5
0.677, 5.686e-5
0.678, 5.679e-5
0.679, 5.675e-5
0.680, 5.669e-5
0.681, 5.664e-5
0.682, 5.660e-5
0.683, 5.654e-5
0.684, 5.649e-5
0.685, 5.644e-5
0.686, 5.638e-5
0.687, 5.635e-5
0.688, 5.629e-5
0.689, 5.625e-5
0.690, 5.620e-5
0.691, 5.616e-5
0.692, 5.612e-5
0.693, 5.606e-5
0.694, 5.602e-5
0.695, 5.598e-5
0.696, 5.592e-5
0.697, 5.589e-5
0.698, 5.584e-5
0.699, 5.580e-5
0.700, 5.576e-5
0.701, 5.571e-5
0.702, 5.568e-5
0.703, 5.563e-5
0.704, 5.559e-5
0.705, 5.556e-5
0.706, 5.551e-5
0.707, 5.548e-5
0.708, 5.543e-5
0.709, 5.540e-5
0.710, 5.536e-5
0.711, 5.533e-5
0.712, 5.530e-5
0.713, 5.525e-5
0.714, 5.522e-5
0.715, 5.518e-5
0.716, 5.515e-5
0.717, 5.514e-5
0.718, 5.508e-5
0.719, 5.506e-5
0.720, 5.502e-5
0.721, 5.498e-5
0.722, 5.495e-5
0.723, 5.490e-5
0.724, 5.489e-5
0.725, 5.486e-5
0.726, 5.482e-5
0.727, 5.480e-5
0.728, 5.475e-5
0.729, 5.473e-5
0.730, 5.470e-5
0.731, 5.467e-5
0.732, 5.465e-5
0.733, 5.461e-5
0.734, 5.459e-5
0.735, 5.456e-5
0.736, 5.453e-5
0.737, 5.451e-5
0.738, 5.447e-5
0.739, 5.444e-5
0.740, 5.442e-5
0.741, 5.439e-5
0.742, 5.438e-5
0.743, 5.433e-5
0.744, 5.431e-5
0.745, 5.429e-5
0.746, 5.426e-5
0.747, 5.425e-5
0.748, 5.421e-5
0.749, 5.420e-5
0.750, 5.417e-5
0.751, 5.415e-5
0.752, 5.413e-5
0.753, 5.410e-5
0.754, 5.408e-5
0.755, 5.405e-5
0.756, 5.403e-5
0.757, 5.402e-5
0.758, 5.398e-5
0.759, 5.397e-5
0.760, 5.395e-5
0.761, 5.392e-5
0.762, 5.391e-5
0.763, 5.388e-5
0.764, 5.387e-5
0.765, 5.385e-5
0.766, 5.382e-5
0.767, 5.381e-5
0.768, 5.378e-5
0.769, 5.378e-5
0.770, 5.376e-5
0.771, 5.372e-5
0.772, 5.373e-5
0.773, 5.370e-5
0.774, 5.368e-5
0.775, 5.366e-5
0.776, 5.364e-5
0.777, 5.364e-5
0.778, 5.360e-5
0.779, 5.359e-5
0.780, 5.358e-5
0.781, 5.355e-5
0.782, 5.355e-5
0.783, 5.352e-5
0.784, 5.351e-5
0.785, 5.350e-5
0.786, 5.348e-5
0.787, 5.348e-5
0.788, 5.345e-5
0.789, 5.345e-5
0.790, 5.343e-5
0.791, 5.341e-5
0.792, 5.341e-5
0.793, 5.339e-5
0.794, 5.338e-5
0.795, 5.336e-5
0.796, 5.334e-5
0.797, 5.334e-5
0.798, 5.331e-5
0.799, 5.331e-5
0.800, 5.329e-5
0.801, 5.327e-5
0.802, 5.327e-5
0.803, 5.325e-5
0.804, 5.324e-5
0.805, 5.323e-5
0.806, 5.320e-5
0.807, 5.321e-5
0.808, 5.319e-5
0.809, 5.319e-5
0.810, 5.317e-5
0.811, 5.316e-5
0.812, 5.316e-5
0.813, 5.314e-5
0.814, 5.314e-5
0.815, 5.313e-5
0.816, 5.311e-5
0.817, 5.311e-5
0.818, 5.309e-5
0.819, 5.304e-5
0.820, 5.307e-5
0.821, 5.305e-5
0.822, 5.305e-5
0.823, 5.303e-5
0.824, 5.303e-5
0.825, 5.302e-5
0.826, 5.301e-5
0.827, 5.301e-5
0.828, 5.300e-5
0.829, 5.300e-5
0.830, 5.299e-5
0.831, 5.298e-5
0.832, 5.296e-5
0.833, 5.296e-5
0.834, 5.296e-5
0.835, 5.295e-5
0.836, 5.294e-5
0.837, 5.294e-5
0.838, 5.292e-5
0.839, 5.293e-5
0.840, 5.292e-5
0.841, 5.291e-5
0.842, 5.291e-5
0.843, 5.289e-5
0.844, 5.291e-5
0.845, 5.292e-5
0.846, 5.289e-5
0.847, 5.289e-5
0.848, 5.287e-5
0.849, 5.288e-5
0.850, 5.287e-5
0.851, 5.285e-5
0.852, 5.286e-5
0.853, 5.284e-5
0.854, 5.284e-5
0.855, 5.284e-5
0.856, 5.282e-5
0.857, 5.283e-5
0.858, 5.282e-5
0.859, 5.282e-5
0.860, 5.283e-5
0.861, 5.282e-5
0.862, 5.283e-5
0.863, 5.282e-5
0.864, 5.282e-5
0.865, 5.283e-5
0.866, 5.281e-5
0.867, 5.282e-5
0.868, 5.281e-5
0.869, 5.281e-5
0.870, 5.279e-5
0.871, 5.279e-5
0.872, 5.280e-5
0.873, 5.278e-5
0.874, 5.279e-5
0.875, 5.278e-5
0.876, 5.278e-5
0.877, 5.280e-5
0.878, 5.278e-5
0.879, 5.279e-5
0.880, 5.279e-5
0.881, 5.279e-5
0.882, 5.280e-5
0.883, 5.277e-5
0.884, 5.280e-5
0.885, 5.280e-5
0.886, 5.278e-5
0.887, 5.280e-5
0.888, 5.278e-5
0.889, 5.278e-5
0.890, 5.279e-5
0.891, 5.278e-5
0.892, 5.279e-5
0.893, 5.278e-5
0.894, 5.279e-5
0.895, 5.280e-5
0.896, 5.280e-5
0.897, 5.282e-5
0.898, 5.281e-5
0.899, 5.281e-5
0.900, 5.220e-5
0.899, 5.181e-5
0.898, 5.167e-5
0.897, 5.151e-5
0.896, 5.139e-5
0.895, 5.130e-5
0.894, 5.121e-5
0.893, 5.113e-5
0.892, 5.102e-5
0.891, 5.096e-5
0.890, 5.090e-5
0.889, 5.082e-5
0.888, 5.077e-5
0.887, 5.069e-5
0.886, 5.065e-5
0.885, 5.059e-5
0.884, 5.053e-5
0.883, 5.049e-5
0.882, 5.042e-5
0.881, 5.037e-5
0.880, 5.033e-5
0.879, 5.027e-5
0.878, 5.024e-5
0.877, 5.018e-5
0.876, 5.013e-5
0.875, 5.008e-5
0.874, 5.004e-5
0.873, 5.000e-5
0.872, 4.995e-5
0.871, 4.993e-5
0.870, 4.988e-5
0.869, 4.984e-5
0.868, 4.981e-5
0.867, 4.977e-5
0.866, 4.975e-5
0.865, 4.972e-5
0.864, 4.968e-5
0.863, 4.966e-5
0.862, 4.961e-5
0.861, 4.959e-5
0.860, 4.956e-5
0.859, 4.952e-5
0.858, 4.952e-5
0.857, 4.946e-5
0.856, 4.944e-5
0.855, 4.940e-5
0.854, 4.936e-5
0.853, 4.935e-5
0.852, 4.930e-5
0.851, 4.929e-5
0.850, 4.927e-5
0.849, 4.923e-5
0.848, 4.922e-5
0.847, 4.918e-5
0.846, 4.917e-5
0.845, 4.913e-5
0.844, 4.911e-5
0.843, 4.910e-5
0.842, 4.907e-5
0.841, 4.905e-5
0.840, 4.903e-5
0.839, 4.900e-5
0.838, 4.899e-5
0.837, 4.895e-5
0.836, 4.893e-5
0.835, 4.890e-5
0.834, 4.888e-5
0.833, 4.887e-5
0.832, 4.885e-5
0.831, 4.883e-5
0.830, 4.882e-5
0.829, 4.880e-5
0.828, 4.879e-5
0.827, 4.876e-5
0.826, 4.876e-5
0.825, 4.873e-5
0.824, 4.870e-5
0.823, 4.870e-5
0.822, 4.866e-5
0.821, 4.865e-5
0.820, 4.865e-5
0.819, 4.862e-5
0.818, 4.860e-5
0.817, 4.857e-5
0.816, 4.856e-5
0.815, 4.854e-5
0.814, 4.853e-5
0.813, 4.853e-5
0.812, 4.850e-5
0.811, 4.849e-5
0.810, 4.848e-5
0.809, 4.846e-5
0.808, 4.845e-5
0.807, 4.843e-5
0.806, 4.842e-5
0.805, 4.840e-5
0.804, 4.837e-5
0.803, 4.837e-5
0.802, 4.834e-5
0.801, 4.833e-5
0.800, 4.832e-5
0.799, 4.830e-5
0.798, 4.830e-5
0.797, 4.828e-5
0.796, 4.826e-5
0.795, 4.825e-5
0.794, 4.822e-5
0.793, 4.823e-5
0.792, 4.820e-5
0.791, 4.820e-5
0.790, 4.819e-5
0.789, 4.817e-5
0.788, 4.817e-5
0.787, 4.815e-5
0.786, 4.814e-5
0.785, 4.813e-5
0.784, 4.811e-5
0.783, 4.811e-5
0.782, 4.808e-5
0.781, 4.809e-5
0.780, 4.806e-5
0.779, 4.804e-5
0.778, 4.805e-5
0.777, 4.802e-5
0.776, 4.801e-5
0.775, 4.800e-5
0.774, 4.799e-5
0.773, 4.799e-5
0.772, 4.796e-5
0.771, 4.797e-5
0.770, 4.795e-5
0.769, 4.793e-5
0.768, 4.794e-5
0.767, 4.791e-5
0.766, 4.790e-5
0.765, 4.789e-5
0.764, 4.787e-5
0.763, 4.787e-5
0.762, 4.786e-5
0.761, 4.785e-5
0.760, 4.784e-5
0.759, 4.782e-5
0.758, 4.783e-5
0.757, 4.781e-5
0.756, 4.780e-5
0.755, 4.780e-5
0.754, 4.778e-5
0.753, 4.778e-5
0.752, 4.776e-5
0.751, 4.776e-5
0.750, 4.775e-5
0.749, 4.773e-5
0.748, 4.773e-5
0.747, 4.770e-5
0.746, 4.770e-5
0.745, 4.769e-5
0.744, 4.768e-5
0.743, 4.766e-5
0.742, 4.765e-5
0.741, 4.765e-5
0.740, 4.764e-5
0.739, 4.762e-5
0.738, 4.763e-5
0.737, 4.761e-5
0.736, 4.761e-5
0.735, 4.760e-5
0.734, 4.758e-5
0.733, 4.759e-5
0.732, 4.757e-5
0.731, 4.756e-5
0.730, 4.757e-5
0.729, 4.754e-5
0.728, 4.754e-5
0.727, 4.752e-5
0.726, 4.752e-5
0.725, 4.751e-5
0.724, 4.749e-5
0.723, 4.749e-5
0.722, 4.748e-5
0.721, 4.747e-5
0.720, 4.746e-5
0.719, 4.745e-5
0.718, 4.745e-5
0.717, 4.742e-5
0.716, 4.742e-5
0.715, 4.742e-5
0.714, 4.741e-5
0.713, 4.741e-5
0.712, 4.739e-5
0.711, 4.739e-5
0.710, 4.739e-5
0.709, 4.737e-5
0.708, 4.737e-5
0.707, 4.735e-5
0.706, 4.735e-5
0.705, 4.734e-5
0.704, 4.734e-5
0.703, 4.733e-5
0.702, 4.732e-5
0.701, 4.732e-5
0.700, 4.731e-5
0.699, 4.730e-5
0.698, 4.730e-5
0.697, 4.728e-5
0.696, 4.727e-5
0.695, 4.727e-5
0.694, 4.725e-5
0.693, 4.726e-5
0.692, 4.723e-5
0.691, 4.722e-5
0.690, 4.723e-5
0.689, 4.721e-5
0.688, 4.721e-5
0.687, 4.719e-5
0.686, 4.719e-5
0.685, 4.718e-5
0.684, 4.716e-5
0.683, 4.717e-5
0.682, 4.716e-5
0.681, 4.715e-5
0.680, 4.715e-5
0.679, 4.714e-5
0.678, 4.715e-5
0.677, 4.713e-5
0.676, 4.712e-5
0.675, 4.712e-5
0.674, 4.711e-5
0.673, 4.711e-5
0.672, 4.708e-5
0.671, 4.708e-5
0.670, 4.707e-5
0.669, 4.705e-5
0.668, 4.705e-5
0.667, 4.703e-5
0.666, 4.704e-5
0.665, 4.703e-5
0.664, 4.701e-5
0.663, 4.703e-5
0.662, 4.701e-5
0.661, 4.701e-5
0.660, 4.700e-5
0.659, 4.699e-5
0.658, 4.699e-5
0.657, 4.697e-5
0.656, 4.697e-5
0.655, 4.696e-5
0.654, 4.694e-5
0.653, 4.695e-5
0.652, 4.693e-5
0.651, 4.691e-5
0.650, 4.691e-5
0.649, 4.690e-5
0.648, 4.690e-5
0.647, 4.689e-5
0.646, 4.689e-5
0.645, 4.688e-5
0.644, 4.686e-5
0.643, 4.687e-5
0.642, 4.686e-5
0.641, 4.685e-5
0.640, 4.683e-5
0.639, 4.682e-5
0.638, 4.683e-5
0.637, 4.681e-5
0.636, 4.680e-5
0.635, 4.679e-5
0.634, 4.678e-5
0.633, 4.677e-5
0.632, 4.676e-5
0.631, 4.675e-5
0.630, 4.675e-5
0.629, 4.673e-5
0.628, 4.674e-5
0.627, 4.672e-5
0.626, 4.672e-5
0.625, 4.670e-5
0.624, 4.668e-5
0.623, 4.669e-5
0.622, 4.667e-5
0.621, 4.666e-5
0.620, 4.665e-5
0.619, 4.663e-5
0.618, 4.664e-5
0.617, 4.661e-5
0.616, 4.660e-5
0.615, 4.661e-5
0.614, 4.658e-5
0.613, 4.658e-5
0.612, 4.655e-5
0.611, 4.654e-5
0.610, 4.654e-5
0.609, 4.652e-5
0.608, 4.652e-5
0.607, 4.650e-5
0.606, 4.649e-5
0.605, 4.649e-5
0.604, 4.646e-5
0.603, 4.646e-5
0.602, 4.645e-5
0.601, 4.643e-5
0.600, 4.641e-5
0.599, 4.639e-5
0.598, 4.639e-5
0.597, 4.636e-5
0.596, 4.635e-5
0.595, 4.633e-5
0.594, 4.631e-5
0.593, 4.630e-5
0.592, 4.629e-5
0.591, 4.627e-5
0.590, 4.626e-5
0.589, 4.622e-5
0.588, 4.622e-5
0.587, 4.619e-5
0.586, 4.618e-5
0.585, 4.616e-5
0.584, 4.613e-5
0.583, 4.612e-5
0.582, 4.609e-5
0.581, 4.607e-5
0.580, 4.605e-5
0.579, 4.602e-5
0.578, 4.601e-5
0.577, 4.597e-5
0.576, 4.596e-5
0.575, 4.593e-5
0.574, 4.590e-5
0.573, 4.588e-5
0.572, 4.584e-5
0.571, 4.582e-5
0.570, 4.580e-5
0.569, 4.575e-5
0.568, 4.573e-5
0.567, 4.569e-5
0.566, 4.566e-5
0.565, 4.563e-5
0.564, 4.558e-5
0.563, 4.556e-5
0.562, 4.551e-5
0.561, 4.547e-5
0.560, 4.543e-5
0.559, 4.538e-5
0.558, 4.535e-5
0.557, 4.529e-5
0.556, 4.525e-5
0.555, 4.520e-5
0.554, 4.515e-5
0.553, 4.510e-5
0.552, 4.504e-5
0.551, 4.500e-5
0.550, 4.495e-5
0.549, 4.488e-5
0.548, 4.482e-5
0.547, 4.475e-5
0.546, 4.470e-5
0.545, 4.462e-5
0.544, 4.453e-5
0.543, 4.448e-5
0.542, 4.439e-5
0.541, 4.432e-5
0.540, 4.422e-5
0.539, 4.414e-5
0.538, 4.405e-5
0.537, 4.395e-5
0.536, 4.388e-5
0.535, 4.377e-5
0.534, 4.367e-5
0.533, 4.358e-5
0.532, 4.345e-5
0.531, 4.335e-5
0.530, 4.323e-5
0.529, 4.310e-5
0.528, 4.299e-5
0.527, 4.283e-5
0.526, 4.273e-5
0.525, 4.261e-5
0.524, 4.243e-5
0.523, 4.230e-5
0.522, 4.213e-5
0.521, 4.199e-5
0.520, 4.182e-5
0.519, 4.163e-5
0.518, 4.148e-5
0.517, 4.128e-5
0.516, 4.108e-5
0.515, 4.088e-5
0.514, 4.066e-5
0.513, 4.049e-5
0.512, 4.017e-5
0.511, 3.999e-5
0.510, 3.974e-5
0.509, 3.951e-5
0.508, 3.926e-5
0.507, 3.895e-5
0.506, 3.872e-5
0.505, 3.840e-5
0.504, 3.812e-5
0.503, 3.782e-5
0.502, 3.748e-5
0.501, 3.721e-5
0.500, 3.683e-5
0.499, 3.655e-5
0.498, 3.618e-5
0.497, 3.571e-5
0.496, 3.539e-5
0.495, 3.496e-5
0.494, 3.456e-5
0.493, 3.415e-5
0.492, 3.364e-5
0.491, 3.323e-5
0.490, 3.275e-5
0.489, 3.223e-5
0.488, 3.178e-5
0.487, 3.110e-5
0.486, 3.063e-5
0.485, 3.006e-5
0.484, 2.948e-5
0.483, 2.894e-5
0.482, 2.827e-5
0.481, 2.772e-5
0.480, 2.703e-5
0.479, 2.634e-5
0.478, 2.572e-5
0.477, 2.497e-5
0.476, 2.430e-5
0.475, 2.344e-5
0.474, 2.279e-5
0.473, 2.200e-5
0.472, 2.112e-5
0.471, 2.033e-5
0.470, 1.935e-5
0.469, 1.855e-5
0.468, 1.761e-5
0.467, 1.658e-5
0.466, 1.577e-5
0.465, 1.468e-5
0.464, 1.373e-5
0.463, 1.271e-5
0.462, 1.144e-5
0.461, 1.073e-5
0.460, 9.424e-6
0.459, 8.334e-6
0.458, 7.257e-6
0.457, 5.919e-6
0.456, 4.897e-6
0.455, 3.473e-6
0.454, 2.314e-6
0.453, 1.254e-6
0.452, -3.490e-7
0.451, -1.375e-6
0.450, -2.890e-6
0.449, -4.140e-6
0.448, -5.092e-6
0.447, -6.894e-6
0.446, -8.104e-6
0.445, -9.598e-6
0.444, -1.094e-5
0.443, -1.238e-5
0.442, -1.402e-5
0.441, -1.513e-5
0.440, -1.683e-5
0.439, -1.832e-5
0.438, -1.969e-5
0.437, -2.138e-5
0.436, -2.258e-5
0.435, -2.473e-5
0.434, -2.579e-5
0.433, -2.703e-5
0.432, -2.873e-5
0.431, -2.989e-5
0.430, -3.161e-5
0.429, -3.283e-5
0.428, -3.427e-5
0.427, -3.589e-5
0.426, -3.673e-5
0.425, -3.848e-5
0.424, -3.951e-5
0.423, -4.090e-5
0.422, -4.223e-5
0.421, -4.311e-5
0.420, -4.496e-5
0.419, -4.587e-5
0.418, -4.697e-5
0.417, -4.832e-5
0.416, -4.903e-5
0.415, -5.050e-5
0.414, -5.127e-5
0.413, -5.217e-5
0.412, -5.333e-5
0.411, -5.387e-5
0.410, -5.389e-5
0.409, -5.476e-5
0.408, -5.577e-5
0.407, -5.694e-5
0.406, -5.734e-5
0.405, -5.827e-5
0.404, -5.885e-5
0.403, -5.931e-5
0.402, -6.014e-5
0.401, -6.032e-5
0.400, -6.090e-5
0.399, -6.139e-5
0.398, -6.162e-5
0.397, -6.186e-5
0.396, -6.200e-5
0.395, -6.251e-5
0.394, -6.264e-5
0.393, -6.277e-5
0.392, -6.305e-5
0.391, -6.292e-5
0.390, -6.324e-5
0.389, -6.305e-5
0.388, -6.308e-5
0.387, -6.325e-5
0.386, -6.288e-5
0.385, -6.304e-5
0.384, -6.310e-5
0.383, -6.278e-5
0.382, -6.269e-5
0.381, -6.217e-5
0.380, -6.216e-5
0.379, -6.185e-5
0.378, -6.143e-5
0.377, -6.128e-5
0.376, -6.078e-5
0.375, -6.058e-5
0.374, -6.019e-5
0.373, -5.966e-5
0.372, -5.942e-5
0.371, -5.874e-5
0.370, -5.850e-5
0.369, -5.808e-5
0.368, -5.756e-5
0.367, -5.726e-5
0.366, -5.663e-5
0.365, -5.622e-5
0.364, -5.579e-5
0.363, -5.526e-5
0.362, -5.483e-5
0.361, -5.423e-5
0.360, -5.377e-5
0.359, -5.327e-5
0.358, -5.268e-5
0.357, -5.225e-5
0.356, -5.167e-5
0.355, -5.118e-5
0.354, -5.070e-5
0.353, -5.011e-5
0.352, -4.965e-5
0.351, -4.907e-5
0.350, -4.859e-5
0.349, -4.806e-5
0.348, -4.751e-5
0.347, -4.705e-5
0.346, -4.637e-5
0.345, -4.594e-5
0.344, -4.544e-5
0.343, -4.493e-5
0.342, -4.445e-5
0.341, -4.389e-5
0.340, -4.344e-5
0.339, -4.292e-5
0.338, -4.242e-5
0.337, -4.197e-5
0.336, -4.144e-5
0.335, -4.101e-5
0.334, -4.053e-5
0.333, -4.009e-5
0.332, -3.965e-5
0.331, -3.912e-5
0.330, -3.867e-5
0.329, -3.823e-5
0.328, -3.775e-5
0.327, -3.734e-5
0.326, -3.688e-5
0.325, -3.645e-5
0.324, -3.603e-5
0.323, -3.560e-5
0.322, -3.520e-5
0.321, -3.478e-5
0.320, -3.434e-5
0.319, -3.396e-5
0.318, -3.355e-5
0.317, -3.318e-5
0.316, -3.279e-5
0.315, -3.242e-5
0.314, -3.202e-5
0.313, -3.164e-5
0.312, -3.130e-5
0.311, -3.092e-5
0.310, -3.056e-5
0.309, -3.021e-5
0.308, -2.986e-5
0.307, -2.955e-5
0.306, -2.919e-5
0.305, -2.886e-5
0.304, -2.853e-5
0.303, -2.819e-5
0.302, -2.790e-5
0.301, -2.756e-5
0.300, -2.725e-5
0.299, -2.696e-5
0.298, -2.664e-5
0.297, -2.635e-5
0.296, -2.606e-5
0.295, -2.576e-5
0.294, -2.548e-5
0.293, -2.519e-5
0.292, -2.493e-5
0.291, -2.465e-5
0.290, -2.437e-5
0.289, -2.412e-5
0.288, -2.385e-5
0.287, -2.361e-5
0.286, -2.334e-5
0.285, -2.309e-5
0.284, -2.285e-5
0.283, -2.260e-5
0.282, -2.238e-5
0.281, -2.214e-5
0.280, -2.190e-5
0.279, -2.168e-5
0.278, -2.144e-5
0.277, -2.123e-5
0.276, -2.100e-5
0.275, -2.078e-5
0.274, -2.057e-5
0.273, -2.036e-5
0.272, -2.016e-5
0.271, -1.995e-5
0.270, -1.975e-5
0.269, -1.955e-5
0.268, -1.935e-5
0.267, -1.917e-5
0.266, -1.897e-5
0.265, -1.879e-5
0.264, -1.861e-5
0.263, -1.841e-5
0.262, -1.824e-5
0.261, -1.806e-5
0.260, -1.788e-5
0.259, -1.772e-5
0.258, -1.754e-5
0.257, -1.738e-5
0.256, -1.721e-5
0.255, -1.704e-5
0.254, -1.689e-5
0.253, -1.672e-5
0.252, -1.657e-5
0.251, -1.642e-5
0.250, -1.626e-5
0.249, -1.612e-5
0.248, -1.596e-5
0.247, -1.582e-5
0.246, -1.567e-5
0.245, -1.552e-5
0.244, -1.539e-5
0.243, -1.524e-5
0.242, -1.510e-5
0.241, -1.497e-5
0.240, -1.483e-5
0.239, -1.471e-5
0.238, -1.457e-5
0.237, -1.444e-5
0.236, -1.432e-5
0.235, -1.419e-5
0.234, -1.407e-5
0.233, -1.394e-5
0.232, -1.382e-5
0.231, -1.371e-5
0.230, -1.359e-5
0.229, -1.348e-5
0.228, -1.336e-5
0.227, -1.325e-5
0.226, -1.314e-5
0.225, -1.302e-5
0.224, -1.292e-5
0.223, -1.280e-5
0.222, -1.270e-5
0.221, -1.260e-5
0.220, -1.249e-5
0.219, -1.239e-5
0.218, -1.228e-5
0.217, -1.219e-5
0.216, -1.209e-5
0.215, -1.199e-5
0.214, -1.190e-5
0.213, -1.180e-5
0.212, -1.170e-5
0.211, -1.161e-5
0.210, -1.151e-5
0.209, -1.143e-5
0.208, -1.133e-5
0.207, -1.125e-5
0.206, -1.117e-5
0.205, -1.106e-5
0.204, -1.099e-5
0.203, -1.090e-5
0.202, -1.082e-5
0.201, -1.074e-5
0.200, -1.065e-5
0.199, -1.058e-5
0.198, -1.049e-5
0.197, -1.041e-5
0.196, -1.034e-5
0.195, -1.026e-5
0.194, -1.019e-5
0.193, -1.011e-5
0.192, -1.003e-5
0.191, -9.965e-6
0.190, -9.888e-6
0.189, -9.823e-6
0.188, -9.752e-6
0.187, -9.685e-6
0.186, -9.615e-6
0.185, -9.546e-6
0.184, -9.481e-6
0.183, -9.409e-6
0.182, -9.345e-6
0.181, -9.285e-6
0.180, -9.221e-6
0.179, -9.162e-6
0.178, -9.093e-6
0.177, -9.033e-6
0.176, -8.972e-6
0.175, -8.905e-6
0.174, -8.853e-6
0.173, -8.782e-6
0.172, -8.732e-6
0.171, -8.677e-6
0.170, -8.612e-6
0.169, -8.564e-6
0.168, -8.502e-6
0.167, -8.440e-6
0.166, -8.392e-6
0.165, -8.335e-6
0.164, -8.293e-6
0.163, -8.236e-6
0.162, -8.181e-6
0.161, -8.137e-6
0.160, -8.081e-6
0.159, -8.037e-6
0.158, -7.981e-6
0.157, -7.932e-6
0.156, -7.891e-6
0.155, -7.836e-6
0.154, -7.790e-6
0.153, -7.742e-6
0.152, -7.698e-6
0.151, -7.657e-6
0.150, -7.608e-6
0.149, -7.565e-6
0.148, -7.520e-6
0.147, -7.481e-6
0.146, -7.440e-6
0.145, -7.395e-6
0.144, -7.362e-6
0.143, -7.315e-6
0.142, -7.276e-6
0.141, -7.235e-6
0.140, -7.199e-6
0.139, -7.168e-6
0.138, -7.124e-6
0.137, -7.088e-6
0.136, -7.054e-6
0.135, -7.012e-6
0.134, -6.985e-6
0.133, -6.945e-6
0.132, -6.914e-6
0.131, -6.880e-6
0.130, -6.838e-6
0.129, -6.817e-6
0.128, -6.784e-6
0.127, -6.749e-6
0.126, -6.721e-6
0.125, -6.685e-6
0.124, -6.665e-6
0.123, -6.628e-6
0.122, -6.598e-6
0.121, -6.574e-6
0.120, -6.543e-6
0.119, -6.521e-6
0.118, -6.486e-6
0.117, -6.462e-6
0.116, -6.439e-6
0.115, -6.410e-6
0.114, -6.390e-6
0.113, -6.362e-6
0.112, -6.342e-6
0.111, -6.321e-6
0.110, -6.292e-6
0.109, -6.277e-6
0.108, -6.251e-6
0.107, -6.232e-6
0.106, -6.213e-6
0.105, -6.189e-6
0.104, -6.178e-6
0.103, -6.156e-6
0.102, -6.138e-6
0.101, -6.119e-6
0.100, -6.096e-6
0.099, -6.088e-6
0.098, -6.061e-6
0.097, -6.050e-6
0.096, -6.034e-6
0.095, -6.015e-6
0.094, -6.005e-6
0.093, -5.984e-6
0.092, -5.975e-6
0.091, -5.963e-6
0.090, -5.940e-6
0.089, -5.941e-6
0.088, -5.924e-6
0.087, -5.915e-6
0.086, -5.907e-6
0.085, -5.889e-6
0.084, -5.890e-6
0.083, -5.874e-6
0.082, -5.866e-6
0.081, -5.862e-6
0.080, -5.849e-6
0.079, -5.850e-6
0.078, -5.836e-6
0.077, -5.838e-6
0.076, -5.831e-6
0.075, -5.820e-6
0.074, -5.821e-6
0.073, -5.811e-6
0.072, -5.810e-6
0.071, -5.806e-6
0.070, -5.797e-6
0.069, -5.802e-6
0.068, -5.794e-6
0.067, -5.797e-6
0.066, -5.795e-6
0.065, -5.789e-6
0.064, -5.789e-6
0.063, -5.787e-6
0.062, -5.791e-6
0.061, -5.794e-6
0.060, -5.793e-6
0.059, -5.801e-6
0.058, -5.792e-6
0.057, -5.802e-6
0.056, -5.807e-6
0.055, -5.804e-6
0.054, -5.816e-6
0.053, -5.815e-6
0.052, -5.820e-6
0.051, -5.829e-6
0.050, -5.829e-6
0.049, -5.842e-6
0.048, -5.845e-6
0.047, -5.851e-6
0.046, -5.861e-6
0.045, -5.862e-6
0.044, -5.883e-6
0.043, -5.882e-6
0.042, -5.892e-6
0.041, -5.906e-6
0.040, -5.910e-6
0.039, -5.925e-6
0.038, -5.932e-6
0.037, -5.944e-6
0.036, -5.958e-6
0.035, -5.966e-6
0.034, -5.985e-6
0.033, -5.991e-6
0.032, -6.006e-6
0.031, -6.026e-6
0.030, -6.036e-6
0.029, -6.057e-6
0.028, -6.068e-6
0.027, -6.087e-6
0.026, -6.110e-6
0.025, -6.123e-6
0.024, -6.145e-6
0.023, -6.159e-6
0.022, -6.179e-6
0.021, -6.196e-6
0.020, -6.210e-6
0.019, -6.235e-6
0.018, -6.251e-6
0.017, -6.276e-6
0.016, -6.298e-6
0.015, -6.313e-6
0.014, -6.339e-6
0.013, -6.350e-6
0.012, -6.379e-6
0.011, -6.403e-6
0.010, -6.422e-6
0.009, -6.451e-6
0.008, -6.469e-6
0.007, -6.494e-6
0.006, -6.522e-6
0.005, -6.540e-6
0.004, -6.577e-6
0.003, -6.595e-6
0.002, -6.624e-6
0.001, -6.658e-6
