June 30, 2026   19:17:58
Cyclic Voltammetry
File: mecn_ar_0.1mtbapf6_3mm_1mmco(dmgh)2(py)cl_1mmzn(cyclen)(otf)2_2
Data Source:  Experiment
Instrument Model:  CHI660D
Header: 
Note: 

Init E (V) = 0
High E (V) = 0.9
Low E (V) = -1.3
Final E (V) = 0
Init P/N = N
Scan Rate (V/s) = 0.1
Segment = 3
Sample Interval (V) = 0.001
Quiet Time (sec) = 2
Sensitivity (A/V) = 1e-4
Comp R (ohm) = 134.7

Results:

Channel 1:
Segment 1:
Ep = -0.356V
ip = -6.101e-6A
Ah = -5.075e-6C

Segment 2:
Ep = 0.446V
ip = 1.055e-4A
Ah = 6.443e-5C

Segment 3:
Ep = 0.388V
ip = -1.098e-4A
Ah = -6.985e-5C

Potential/V, Current/A

0.000, -2.162e-6
-0.001, -2.252e-6
-0.002, -2.301e-6
-0.003, -2.344e-6
-0.004, -2.395e-6
-0.005, -2.433e-6
-0.006, -2.475e-6
-0.007, -2.517e-6
-0.008, -2.555e-6
-0.009, -2.598e-6
-0.010, -2.632e-6
-0.011, -2.674e-6
-0.012, -2.713e-6
-0.013, -2.751e-6
-0.014, -2.794e-6
-0.015, -2.827e-6
-0.016, -2.870e-6
-0.017, -2.910e-6
-0.018, -2.945e-6
-0.019, -2.990e-6
-0.020, -3.026e-6
-0.021, -3.068e-6
-0.022, -3.106e-6
-0.023, -3.145e-6
-0.024, -3.192e-6
-0.025, -3.232e-6
-0.026, -3.274e-6
-0.027, -3.314e-6
-0.028, -3.351e-6
-0.029, -3.397e-6
-0.030, -3.431e-6
-0.031, -3.480e-6
-0.032, -3.517e-6
-0.033, -3.556e-6
-0.034, -3.605e-6
-0.035, -3.637e-6
-0.036, -3.688e-6
-0.037, -3.734e-6
-0.038, -3.765e-6
-0.039, -3.815e-6
-0.040, -3.852e-6
-0.041, -3.898e-6
-0.042, -3.944e-6
-0.043, -3.983e-6
-0.044, -4.034e-6
-0.045, -4.068e-6
-0.046, -4.109e-6
-0.047, -4.155e-6
-0.048, -4.201e-6
-0.049, -4.248e-6
-0.050, -4.284e-6
-0.051, -4.332e-6
-0.052, -4.378e-6
-0.053, -4.421e-6
-0.054, -4.470e-6
-0.055, -4.507e-6
-0.056, -4.562e-6
-0.057, -4.603e-6
-0.058, -4.648e-6
-0.059, -4.701e-6
-0.060, -4.740e-6
-0.061, -4.789e-6
-0.062, -4.832e-6
-0.063, -4.876e-6
-0.064, -4.925e-6
-0.065, -4.970e-6
-0.066, -5.020e-6
-0.067, -5.064e-6
-0.068, -5.112e-6
-0.069, -5.162e-6
-0.070, -5.205e-6
-0.071, -5.253e-6
-0.072, -5.299e-6
-0.073, -5.343e-6
-0.074, -5.392e-6
-0.075, -5.433e-6
-0.076, -5.487e-6
-0.077, -5.532e-6
-0.078, -5.575e-6
-0.079, -5.622e-6
-0.080, -5.667e-6
-0.081, -5.717e-6
-0.082, -5.760e-6
-0.083, -5.803e-6
-0.084, -5.854e-6
-0.085, -5.890e-6
-0.086, -5.939e-6
-0.087, -5.981e-6
-0.088, -6.026e-6
-0.089, -6.067e-6
-0.090, -6.111e-6
-0.091, -6.158e-6
-0.092, -6.204e-6
-0.093, -6.242e-6
-0.094, -6.290e-6
-0.095, -6.328e-6
-0.096, -6.372e-6
-0.097, -6.416e-6
-0.098, -6.456e-6
-0.099, -6.500e-6
-0.100, -6.538e-6
-0.101, -6.587e-6
-0.102, -6.631e-6
-0.103, -6.672e-6
-0.104, -6.713e-6
-0.105, -6.750e-6
-0.106, -6.790e-6
-0.107, -6.828e-6
-0.108, -6.870e-6
-0.109, -6.913e-6
-0.110, -6.945e-6
-0.111, -6.990e-6
-0.112, -7.024e-6
-0.113, -7.063e-6
-0.114, -7.108e-6
-0.115, -7.133e-6
-0.116, -7.178e-6
-0.117, -7.211e-6
-0.118, -7.244e-6
-0.119, -7.288e-6
-0.120, -7.315e-6
-0.121, -7.352e-6
-0.122, -7.387e-6
-0.123, -7.416e-6
-0.124, -7.461e-6
-0.125, -7.487e-6
-0.126, -7.520e-6
-0.127, -7.553e-6
-0.128, -7.595e-6
-0.129, -7.628e-6
-0.130, -7.653e-6
-0.131, -7.686e-6
-0.132, -7.716e-6
-0.133, -7.746e-6
-0.134, -7.779e-6
-0.135, -7.803e-6
-0.136, -7.840e-6
-0.137, -7.868e-6
-0.138, -7.895e-6
-0.139, -7.929e-6
-0.140, -7.950e-6
-0.141, -7.978e-6
-0.142, -8.004e-6
-0.143, -8.033e-6
-0.144, -8.063e-6
-0.145, -8.087e-6
-0.146, -8.119e-6
-0.147, -8.139e-6
-0.148, -8.165e-6
-0.149, -8.193e-6
-0.150, -8.210e-6
-0.151, -8.243e-6
-0.152, -8.264e-6
-0.153, -8.283e-6
-0.154, -8.313e-6
-0.155, -8.328e-6
-0.156, -8.360e-6
-0.157, -8.377e-6
-0.158, -8.397e-6
-0.159, -8.425e-6
-0.160, -8.440e-6
-0.161, -8.467e-6
-0.162, -8.487e-6
-0.163, -8.505e-6
-0.164, -8.530e-6
-0.165, -8.546e-6
-0.166, -8.569e-6
-0.167, -8.588e-6
-0.168, -8.608e-6
-0.169, -8.633e-6
-0.170, -8.645e-6
-0.171, -8.667e-6
-0.172, -8.689e-6
-0.173, -8.705e-6
-0.174, -8.730e-6
-0.175, -8.743e-6
-0.176, -8.769e-6
-0.177, -8.783e-6
-0.178, -8.802e-6
-0.179, -8.832e-6
-0.180, -8.847e-6
-0.181, -8.867e-6
-0.182, -8.884e-6
-0.183, -8.901e-6
-0.184, -8.925e-6
-0.185, -8.934e-6
-0.186, -8.964e-6
-0.187, -8.977e-6
-0.188, -8.997e-6
-0.189, -9.019e-6
-0.190, -9.032e-6
-0.191, -9.060e-6
-0.192, -9.069e-6
-0.193, -9.094e-6
-0.194, -9.119e-6
-0.195, -9.131e-6
-0.196, -9.159e-6
-0.197, -9.179e-6
-0.198, -9.194e-6
-0.199, -9.224e-6
-0.200, -9.240e-6
-0.201, -9.267e-6
-0.202, -9.290e-6
-0.203, -9.312e-6
-0.204, -9.335e-6
-0.205, -9.350e-6
-0.206, -9.382e-6
-0.207, -9.405e-6
-0.208, -9.434e-6
-0.209, -9.467e-6
-0.210, -9.488e-6
-0.211, -9.522e-6
-0.212, -9.555e-6
-0.213, -9.585e-6
-0.214, -9.617e-6
-0.215, -9.646e-6
-0.216, -9.683e-6
-0.217, -9.713e-6
-0.218, -9.747e-6
-0.219, -9.791e-6
-0.220, -9.825e-6
-0.221, -9.861e-6
-0.222, -9.900e-6
-0.223, -9.941e-6
-0.224, -9.989e-6
-0.225, -1.003e-5
-0.226, -1.008e-5
-0.227, -1.012e-5
-0.228, -1.017e-5
-0.229, -1.023e-5
-0.230, -1.028e-5
-0.231, -1.033e-5
-0.232, -1.038e-5
-0.233, -1.044e-5
-0.234, -1.050e-5
-0.235, -1.055e-5
-0.236, -1.062e-5
-0.237, -1.067e-5
-0.238, -1.073e-5
-0.239, -1.081e-5
-0.240, -1.086e-5
-0.241, -1.094e-5
-0.242, -1.100e-5
-0.243, -1.106e-5
-0.244, -1.114e-5
-0.245, -1.121e-5
-0.246, -1.128e-5
-0.247, -1.136e-5
-0.248, -1.142e-5
-0.249, -1.151e-5
-0.250, -1.158e-5
-0.251, -1.166e-5
-0.252, -1.174e-5
-0.253, -1.182e-5
-0.254, -1.191e-5
-0.255, -1.199e-5
-0.256, -1.207e-5
-0.257, -1.215e-5
-0.258, -1.224e-5
-0.259, -1.232e-5
-0.260, -1.241e-5
-0.261, -1.250e-5
-0.262, -1.258e-5
-0.263, -1.267e-5
-0.264, -1.277e-5
-0.265, -1.285e-5
-0.266, -1.295e-5
-0.267, -1.304e-5
-0.268, -1.313e-5
-0.269, -1.322e-5
-0.270, -1.330e-5
-0.271, -1.340e-5
-0.272, -1.349e-5
-0.273, -1.358e-5
-0.274, -1.368e-5
-0.275, -1.377e-5
-0.276, -1.387e-5
-0.277, -1.396e-5
-0.278, -1.405e-5
-0.279, -1.414e-5
-0.280, -1.423e-5
-0.281, -1.434e-5
-0.282, -1.444e-5
-0.283, -1.452e-5
-0.284, -1.462e-5
-0.285, -1.471e-5
-0.286, -1.480e-5
-0.287, -1.490e-5
-0.288, -1.498e-5
-0.289, -1.508e-5
-0.290, -1.516e-5
-0.291, -1.526e-5
-0.292, -1.534e-5
-0.293, -1.543e-5
-0.294, -1.551e-5
-0.295, -1.560e-5
-0.296, -1.569e-5
-0.297, -1.578e-5
-0.298, -1.586e-5
-0.299, -1.595e-5
-0.300, -1.603e-5
-0.301, -1.612e-5
-0.302, -1.619e-5
-0.303, -1.627e-5
-0.304, -1.636e-5
-0.305, -1.643e-5
-0.306, -1.652e-5
-0.307, -1.659e-5
-0.308, -1.667e-5
-0.309, -1.674e-5
-0.310, -1.681e-5
-0.311, -1.688e-5
-0.312, -1.695e-5
-0.313, -1.701e-5
-0.314, -1.708e-5
-0.315, -1.714e-5
-0.316, -1.721e-5
-0.317, -1.727e-5
-0.318, -1.732e-5
-0.319, -1.739e-5
-0.320, -1.743e-5
-0.321, -1.749e-5
-0.322, -1.754e-5
-0.323, -1.759e-5
-0.324, -1.765e-5
-0.325, -1.769e-5
-0.326, -1.774e-5
-0.327, -1.778e-5
-0.328, -1.783e-5
-0.329, -1.787e-5
-0.330, -1.791e-5
-0.331, -1.795e-5
-0.332, -1.799e-5
-0.333, -1.803e-5
-0.334, -1.806e-5
-0.335, -1.809e-5
-0.336, -1.813e-5
-0.337, -1.815e-5
-0.338, -1.818e-5
-0.339, -1.820e-5
-0.340, -1.822e-5
-0.341, -1.825e-5
-0.342, -1.827e-5
-0.343, -1.829e-5
-0.344, -1.831e-5
-0.345, -1.832e-5
-0.346, -1.833e-5
-0.347, -1.834e-5
-0.348, -1.836e-5
-0.349, -1.837e-5
-0.350, -1.837e-5
-0.351, -1.839e-5
-0.352, -1.839e-5
-0.353, -1.839e-5
-0.354, -1.840e-5
-0.355, -1.839e-5
-0.356, -1.840e-5
-0.357, -1.840e-5
-0.358, -1.839e-5
-0.359, -1.839e-5
-0.360, -1.838e-5
-0.361, -1.838e-5
-0.362, -1.837e-5
-0.363, -1.837e-5
-0.364, -1.837e-5
-0.365, -1.835e-5
-0.366, -1.834e-5
-0.367, -1.833e-5
-0.368, -1.832e-5
-0.369, -1.831e-5
-0.370, -1.828e-5
-0.371, -1.826e-5
-0.372, -1.825e-5
-0.373, -1.824e-5
-0.374, -1.822e-5
-0.375, -1.820e-5
-0.376, -1.819e-5
-0.377, -1.816e-5
-0.378, -1.814e-5
-0.379, -1.813e-5
-0.380, -1.810e-5
-0.381, -1.809e-5
-0.382, -1.806e-5
-0.383, -1.804e-5
-0.384, -1.804e-5
-0.385, -1.799e-5
-0.386, -1.798e-5
-0.387, -1.795e-5
-0.388, -1.793e-5
-0.389, -1.790e-5
-0.390, -1.787e-5
-0.391, -1.785e-5
-0.392, -1.782e-5
-0.393, -1.779e-5
-0.394, -1.777e-5
-0.395, -1.774e-5
-0.396, -1.772e-5
-0.397, -1.768e-5
-0.398, -1.765e-5
-0.399, -1.763e-5
-0.400, -1.760e-5
-0.401, -1.758e-5
-0.402, -1.755e-5
-0.403, -1.752e-5
-0.404, -1.750e-5
-0.405, -1.746e-5
-0.406, -1.743e-5
-0.407, -1.741e-5
-0.408, -1.738e-5
-0.409, -1.733e-5
-0.410, -1.729e-5
-0.411, -1.727e-5
-0.412, -1.725e-5
-0.413, -1.722e-5
-0.414, -1.719e-5
-0.415, -1.716e-5
-0.416, -1.714e-5
-0.417, -1.711e-5
-0.418, -1.707e-5
-0.419, -1.704e-5
-0.420, -1.701e-5
-0.421, -1.699e-5
-0.422, -1.695e-5
-0.423, -1.692e-5
-0.424, -1.690e-5
-0.425, -1.687e-5
-0.426, -1.684e-5
-0.427, -1.681e-5
-0.428, -1.678e-5
-0.429, -1.675e-5
-0.430, -1.671e-5
-0.431, -1.670e-5
-0.432, -1.666e-5
-0.433, -1.663e-5
-0.434, -1.661e-5
-0.435, -1.658e-5
-0.436, -1.655e-5
-0.437, -1.652e-5
-0.438, -1.649e-5
-0.439, -1.647e-5
-0.440, -1.643e-5
-0.441, -1.641e-5
-0.442, -1.638e-5
-0.443, -1.635e-5
-0.444, -1.632e-5
-0.445, -1.629e-5
-0.446, -1.626e-5
-0.447, -1.624e-5
-0.448, -1.620e-5
-0.449, -1.618e-5
-0.450, -1.615e-5
-0.451, -1.612e-5
-0.452, -1.610e-5
-0.453, -1.607e-5
-0.454, -1.605e-5
-0.455, -1.601e-5
-0.456, -1.599e-5
-0.457, -1.596e-5
-0.458, -1.593e-5
-0.459, -1.591e-5
-0.460, -1.588e-5
-0.461, -1.586e-5
-0.462, -1.583e-5
-0.463, -1.580e-5
-0.464, -1.578e-5
-0.465, -1.575e-5
-0.466, -1.573e-5
-0.467, -1.570e-5
-0.468, -1.568e-5
-0.469, -1.566e-5
-0.470, -1.562e-5
-0.471, -1.560e-5
-0.472, -1.558e-5
-0.473, -1.554e-5
-0.474, -1.553e-5
-0.475, -1.550e-5
-0.476, -1.549e-5
-0.477, -1.546e-5
-0.478, -1.543e-5
-0.479, -1.541e-5
-0.480, -1.538e-5
-0.481, -1.537e-5
-0.482, -1.534e-5
-0.483, -1.532e-5
-0.484, -1.530e-5
-0.485, -1.528e-5
-0.486, -1.526e-5
-0.487, -1.524e-5
-0.488, -1.521e-5
-0.489, -1.520e-5
-0.490, -1.517e-5
-0.491, -1.515e-5
-0.492, -1.513e-5
-0.493, -1.511e-5
-0.494, -1.510e-5
-0.495, -1.507e-5
-0.496, -1.506e-5
-0.497, -1.503e-5
-0.498, -1.501e-5
-0.499, -1.499e-5
-0.500, -1.497e-5
-0.501, -1.496e-5
-0.502, -1.494e-5
-0.503, -1.491e-5
-0.504, -1.490e-5
-0.505, -1.488e-5
-0.506, -1.486e-5
-0.507, -1.484e-5
-0.508, -1.483e-5
-0.509, -1.482e-5
-0.510, -1.479e-5
-0.511, -1.478e-5
-0.512, -1.477e-5
-0.513, -1.475e-5
-0.514, -1.473e-5
-0.515, -1.470e-5
-0.516, -1.470e-5
-0.517, -1.468e-5
-0.518, -1.465e-5
-0.519, -1.465e-5
-0.520, -1.462e-5
-0.521, -1.461e-5
-0.522, -1.460e-5
-0.523, -1.458e-5
-0.524, -1.457e-5
-0.525, -1.455e-5
-0.526, -1.453e-5
-0.527, -1.452e-5
-0.528, -1.450e-5
-0.529, -1.449e-5
-0.530, -1.448e-5
-0.531, -1.446e-5
-0.532, -1.445e-5
-0.533, -1.444e-5
-0.534, -1.442e-5
-0.535, -1.440e-5
-0.536, -1.439e-5
-0.537, -1.438e-5
-0.538, -1.437e-5
-0.539, -1.436e-5
-0.540, -1.434e-5
-0.541, -1.433e-5
-0.542, -1.431e-5
-0.543, -1.429e-5
-0.544, -1.429e-5
-0.545, -1.427e-5
-0.546, -1.426e-5
-0.547, -1.424e-5
-0.548, -1.423e-5
-0.549, -1.422e-5
-0.550, -1.420e-5
-0.551, -1.419e-5
-0.552, -1.419e-5
-0.553, -1.416e-5
-0.554, -1.416e-5
-0.555, -1.414e-5
-0.556, -1.413e-5
-0.557, -1.412e-5
-0.558, -1.410e-5
-0.559, -1.409e-5
-0.560, -1.408e-5
-0.561, -1.407e-5
-0.562, -1.406e-5
-0.563, -1.404e-5
-0.564, -1.404e-5
-0.565, -1.402e-5
-0.566, -1.401e-5
-0.567, -1.400e-5
-0.568, -1.399e-5
-0.569, -1.398e-5
-0.570, -1.397e-5
-0.571, -1.396e-5
-0.572, -1.395e-5
-0.573, -1.393e-5
-0.574, -1.393e-5
-0.575, -1.391e-5
-0.576, -1.390e-5
-0.577, -1.389e-5
-0.578, -1.387e-5
-0.579, -1.386e-5
-0.580, -1.385e-5
-0.581, -1.384e-5
-0.582, -1.383e-5
-0.583, -1.382e-5
-0.584, -1.381e-5
-0.585, -1.380e-5
-0.586, -1.379e-5
-0.587, -1.378e-5
-0.588, -1.377e-5
-0.589, -1.377e-5
-0.590, -1.374e-5
-0.591, -1.374e-5
-0.592, -1.373e-5
-0.593, -1.371e-5
-0.594, -1.371e-5
-0.595, -1.370e-5
-0.596, -1.369e-5
-0.597, -1.368e-5
-0.598, -1.366e-5
-0.599, -1.367e-5
-0.600, -1.365e-5
-0.601, -1.364e-5
-0.602, -1.363e-5
-0.603, -1.362e-5
-0.604, -1.362e-5
-0.605, -1.360e-5
-0.606, -1.359e-5
-0.607, -1.359e-5
-0.608, -1.357e-5
-0.609, -1.357e-5
-0.610, -1.355e-5
-0.611, -1.355e-5
-0.612, -1.354e-5
-0.613, -1.353e-5
-0.614, -1.351e-5
-0.615, -1.351e-5
-0.616, -1.350e-5
-0.617, -1.350e-5
-0.618, -1.349e-5
-0.619, -1.348e-5
-0.620, -1.347e-5
-0.621, -1.347e-5
-0.622, -1.345e-5
-0.623, -1.344e-5
-0.624, -1.344e-5
-0.625, -1.343e-5
-0.626, -1.342e-5
-0.627, -1.341e-5
-0.628, -1.341e-5
-0.629, -1.340e-5
-0.630, -1.339e-5
-0.631, -1.339e-5
-0.632, -1.338e-5
-0.633, -1.337e-5
-0.634, -1.336e-5
-0.635, -1.336e-5
-0.636, -1.335e-5
-0.637, -1.335e-5
-0.638, -1.334e-5
-0.639, -1.334e-5
-0.640, -1.333e-5
-0.641, -1.332e-5
-0.642, -1.332e-5
-0.643, -1.330e-5
-0.644, -1.331e-5
-0.645, -1.330e-5
-0.646, -1.329e-5
-0.647, -1.329e-5
-0.648, -1.328e-5
-0.649, -1.328e-5
-0.650, -1.327e-5
-0.651, -1.326e-5
-0.652, -1.326e-5
-0.653, -1.325e-5
-0.654, -1.325e-5
-0.655, -1.324e-5
-0.656, -1.324e-5
-0.657, -1.324e-5
-0.658, -1.323e-5
-0.659, -1.323e-5
-0.660, -1.322e-5
-0.661, -1.322e-5
-0.662, -1.322e-5
-0.663, -1.321e-5
-0.664, -1.321e-5
-0.665, -1.320e-5
-0.666, -1.320e-5
-0.667, -1.320e-5
-0.668, -1.319e-5
-0.669, -1.319e-5
-0.670, -1.318e-5
-0.671, -1.318e-5
-0.672, -1.318e-5
-0.673, -1.318e-5
-0.674, -1.318e-5
-0.675, -1.317e-5
-0.676, -1.317e-5
-0.677, -1.317e-5
-0.678, -1.315e-5
-0.679, -1.317e-5
-0.680, -1.316e-5
-0.681, -1.316e-5
-0.682, -1.316e-5
-0.683, -1.316e-5
-0.684, -1.316e-5
-0.685, -1.315e-5
-0.686, -1.316e-5
-0.687, -1.316e-5
-0.688, -1.316e-5
-0.689, -1.316e-5
-0.690, -1.315e-5
-0.691, -1.317e-5
-0.692, -1.316e-5
-0.693, -1.315e-5
-0.694, -1.316e-5
-0.695, -1.316e-5
-0.696, -1.317e-5
-0.697, -1.316e-5
-0.698, -1.316e-5
-0.699, -1.317e-5
-0.700, -1.317e-5
-0.701, -1.317e-5
-0.702, -1.317e-5
-0.703, -1.317e-5
-0.704, -1.318e-5
-0.705, -1.318e-5
-0.706, -1.318e-5
-0.707, -1.318e-5
-0.708, -1.319e-5
-0.709, -1.319e-5
-0.710, -1.319e-5
-0.711, -1.320e-5
-0.712, -1.321e-5
-0.713, -1.321e-5
-0.714, -1.322e-5
-0.715, -1.322e-5
-0.716, -1.323e-5
-0.717, -1.324e-5
-0.718, -1.324e-5
-0.719, -1.325e-5
-0.720, -1.325e-5
-0.721, -1.326e-5
-0.722, -1.327e-5
-0.723, -1.327e-5
-0.724, -1.328e-5
-0.725, -1.328e-5
-0.726, -1.329e-5
-0.727, -1.330e-5
-0.728, -1.331e-5
-0.729, -1.332e-5
-0.730, -1.332e-5
-0.731, -1.334e-5
-0.732, -1.335e-5
-0.733, -1.335e-5
-0.734, -1.337e-5
-0.735, -1.337e-5
-0.736, -1.338e-5
-0.737, -1.340e-5
-0.738, -1.340e-5
-0.739, -1.342e-5
-0.740, -1.343e-5
-0.741, -1.345e-5
-0.742, -1.347e-5
-0.743, -1.347e-5
-0.744, -1.349e-5
-0.745, -1.350e-5
-0.746, -1.352e-5
-0.747, -1.353e-5
-0.748, -1.354e-5
-0.749, -1.356e-5
-0.750, -1.357e-5
-0.751, -1.358e-5
-0.752, -1.361e-5
-0.753, -1.362e-5
-0.754, -1.364e-5
-0.755, -1.364e-5
-0.756, -1.367e-5
-0.757, -1.369e-5
-0.758, -1.370e-5
-0.759, -1.373e-5
-0.760, -1.374e-5
-0.761, -1.376e-5
-0.762, -1.378e-5
-0.763, -1.379e-5
-0.764, -1.382e-5
-0.765, -1.383e-5
-0.766, -1.386e-5
-0.767, -1.388e-5
-0.768, -1.390e-5
-0.769, -1.393e-5
-0.770, -1.395e-5
-0.771, -1.398e-5
-0.772, -1.400e-5
-0.773, -1.402e-5
-0.774, -1.405e-5
-0.775, -1.407e-5
-0.776, -1.410e-5
-0.777, -1.413e-5
-0.778, -1.415e-5
-0.779, -1.419e-5
-0.780, -1.421e-5
-0.781, -1.424e-5
-0.782, -1.427e-5
-0.783, -1.430e-5
-0.784, -1.435e-5
-0.785, -1.437e-5
-0.786, -1.441e-5
-0.787, -1.444e-5
-0.788, -1.448e-5
-0.789, -1.452e-5
-0.790, -1.455e-5
-0.791, -1.459e-5
-0.792, -1.463e-5
-0.793, -1.468e-5
-0.794, -1.473e-5
-0.795, -1.476e-5
-0.796, -1.482e-5
-0.797, -1.486e-5
-0.798, -1.490e-5
-0.799, -1.496e-5
-0.800, -1.500e-5
-0.801, -1.507e-5
-0.802, -1.512e-5
-0.803, -1.517e-5
-0.804, -1.524e-5
-0.805, -1.529e-5
-0.806, -1.534e-5
-0.807, -1.541e-5
-0.808, -1.548e-5
-0.809, -1.557e-5
-0.810, -1.562e-5
-0.811, -1.572e-5
-0.812, -1.579e-5
-0.813, -1.587e-5
-0.814, -1.596e-5
-0.815, -1.604e-5
-0.816, -1.614e-5
-0.817, -1.623e-5
-0.818, -1.634e-5
-0.819, -1.641e-5
-0.820, -1.651e-5
-0.821, -1.665e-5
-0.822, -1.674e-5
-0.823, -1.686e-5
-0.824, -1.699e-5
-0.825, -1.710e-5
-0.826, -1.723e-5
-0.827, -1.735e-5
-0.828, -1.750e-5
-0.829, -1.763e-5
-0.830, -1.776e-5
-0.831, -1.792e-5
-0.832, -1.804e-5
-0.833, -1.821e-5
-0.834, -1.836e-5
-0.835, -1.852e-5
-0.836, -1.869e-5
-0.837, -1.886e-5
-0.838, -1.903e-5
-0.839, -1.921e-5
-0.840, -1.938e-5
-0.841, -1.958e-5
-0.842, -1.976e-5
-0.843, -1.995e-5
-0.844, -2.015e-5
-0.845, -2.037e-5
-0.846, -2.057e-5
-0.847, -2.077e-5
-0.848, -2.098e-5
-0.849, -2.121e-5
-0.850, -2.141e-5
-0.851, -2.163e-5
-0.852, -2.187e-5
-0.853, -2.209e-5
-0.854, -2.234e-5
-0.855, -2.256e-5
-0.856, -2.282e-5
-0.857, -2.305e-5
-0.858, -2.329e-5
-0.859, -2.356e-5
-0.860, -2.383e-5
-0.861, -2.409e-5
-0.862, -2.434e-5
-0.863, -2.462e-5
-0.864, -2.490e-5
-0.865, -2.518e-5
-0.866, -2.547e-5
-0.867, -2.575e-5
-0.868, -2.605e-5
-0.869, -2.636e-5
-0.870, -2.663e-5
-0.871, -2.696e-5
-0.872, -2.725e-5
-0.873, -2.758e-5
-0.874, -2.788e-5
-0.875, -2.820e-5
-0.876, -2.856e-5
-0.877, -2.886e-5
-0.878, -2.921e-5
-0.879, -2.955e-5
-0.880, -2.988e-5
-0.881, -3.026e-5
-0.882, -3.059e-5
-0.883, -3.091e-5
-0.884, -3.132e-5
-0.885, -3.166e-5
-0.886, -3.207e-5
-0.887, -3.241e-5
-0.888, -3.280e-5
-0.889, -3.319e-5
-0.890, -3.357e-5
-0.891, -3.399e-5
-0.892, -3.437e-5
-0.893, -3.479e-5
-0.894, -3.521e-5
-0.895, -3.561e-5
-0.896, -3.609e-5
-0.897, -3.649e-5
-0.898, -3.692e-5
-0.899, -3.735e-5
-0.900, -3.778e-5
-0.901, -3.824e-5
-0.902, -3.865e-5
-0.903, -3.915e-5
-0.904, -3.960e-5
-0.905, -4.005e-5
-0.906, -4.054e-5
-0.907, -4.099e-5
-0.908, -4.148e-5
-0.909, -4.193e-5
-0.910, -4.241e-5
-0.911, -4.294e-5
-0.912, -4.340e-5
-0.913, -4.395e-5
-0.914, -4.446e-5
-0.915, -4.493e-5
-0.916, -4.550e-5
-0.917, -4.596e-5
-0.918, -4.650e-5
-0.919, -4.703e-5
-0.920, -4.752e-5
-0.921, -4.815e-5
-0.922, -4.867e-5
-0.923, -4.917e-5
-0.924, -4.970e-5
-0.925, -5.023e-5
-0.926, -5.080e-5
-0.927, -5.133e-5
-0.928, -5.187e-5
-0.929, -5.243e-5
-0.930, -5.293e-5
-0.931, -5.352e-5
-0.932, -5.407e-5
-0.933, -5.464e-5
-0.934, -5.512e-5
-0.935, -5.567e-5
-0.936, -5.625e-5
-0.937, -5.676e-5
-0.938, -5.733e-5
-0.939, -5.786e-5
-0.940, -5.841e-5
-0.941, -5.899e-5
-0.942, -5.950e-5
-0.943, -6.006e-5
-0.944, -6.059e-5
-0.945, -6.114e-5
-0.946, -6.168e-5
-0.947, -6.223e-5
-0.948, -6.277e-5
-0.949, -6.329e-5
-0.950, -6.375e-5
-0.951, -6.431e-5
-0.952, -6.476e-5
-0.953, -6.530e-5
-0.954, -6.574e-5
-0.955, -6.621e-5
-0.956, -6.674e-5
-0.957, -6.716e-5
-0.958, -6.765e-5
-0.959, -6.812e-5
-0.960, -6.847e-5
-0.961, -6.901e-5
-0.962, -6.942e-5
-0.963, -6.987e-5
-0.964, -7.034e-5
-0.965, -7.072e-5
-0.966, -7.114e-5
-0.967, -7.150e-5
-0.968, -7.195e-5
-0.969, -7.233e-5
-0.970, -7.270e-5
-0.971, -7.309e-5
-0.972, -7.342e-5
-0.973, -7.377e-5
-0.974, -7.414e-5
-0.975, -7.445e-5
-0.976, -7.482e-5
-0.977, -7.512e-5
-0.978, -7.544e-5
-0.979, -7.576e-5
-0.980, -7.602e-5
-0.981, -7.635e-5
-0.982, -7.659e-5
-0.983, -7.690e-5
-0.984, -7.717e-5
-0.985, -7.738e-5
-0.986, -7.765e-5
-0.987, -7.789e-5
-0.988, -7.816e-5
-0.989, -7.840e-5
-0.990, -7.859e-5
-0.991, -7.881e-5
-0.992, -7.902e-5
-0.993, -7.923e-5
-0.994, -7.943e-5
-0.995, -7.958e-5
-0.996, -7.981e-5
-0.997, -7.995e-5
-0.998, -8.017e-5
-0.999, -8.033e-5
-1.000, -8.045e-5
-1.001, -8.062e-5
-1.002, -8.074e-5
-1.003, -8.088e-5
-1.004, -8.102e-5
-1.005, -8.114e-5
-1.006, -8.128e-5
-1.007, -8.139e-5
-1.008, -8.148e-5
-1.009, -8.161e-5
-1.010, -8.170e-5
-1.011, -8.178e-5
-1.012, -8.188e-5
-1.013, -8.199e-5
-1.014, -8.206e-5
-1.015, -8.213e-5
-1.016, -8.222e-5
-1.017, -8.229e-5
-1.018, -8.236e-5
-1.019, -8.243e-5
-1.020, -8.249e-5
-1.021, -8.257e-5
-1.022, -8.261e-5
-1.023, -8.267e-5
-1.024, -8.266e-5
-1.025, -8.274e-5
-1.026, -8.280e-5
-1.027, -8.283e-5
-1.028, -8.289e-5
-1.029, -8.293e-5
-1.030, -8.295e-5
-1.031, -8.300e-5
-1.032, -8.302e-5
-1.033, -8.306e-5
-1.034, -8.309e-5
-1.035, -8.311e-5
-1.036, -8.314e-5
-1.037, -8.314e-5
-1.038, -8.317e-5
-1.039, -8.320e-5
-1.040, -8.320e-5
-1.041, -8.323e-5
-1.042, -8.324e-5
-1.043, -8.325e-5
-1.044, -8.328e-5
-1.045, -8.327e-5
-1.046, -8.329e-5
-1.047, -8.329e-5
-1.048, -8.330e-5
-1.049, -8.333e-5
-1.050, -8.332e-5
-1.051, -8.333e-5
-1.052, -8.333e-5
-1.053, -8.333e-5
-1.054, -8.334e-5
-1.055, -8.334e-5
-1.056, -8.334e-5
-1.057, -8.334e-5
-1.058, -8.334e-5
-1.059, -8.334e-5
-1.060, -8.334e-5
-1.061, -8.335e-5
-1.062, -8.333e-5
-1.063, -8.333e-5
-1.064, -8.334e-5
-1.065, -8.333e-5
-1.066, -8.334e-5
-1.067, -8.333e-5
-1.068, -8.332e-5
-1.069, -8.333e-5
-1.070, -8.332e-5
-1.071, -8.332e-5
-1.072, -8.332e-5
-1.073, -8.330e-5
-1.074, -8.331e-5
-1.075, -8.329e-5
-1.076, -8.331e-5
-1.077, -8.330e-5
-1.078, -8.329e-5
-1.079, -8.330e-5
-1.080, -8.328e-5
-1.081, -8.328e-5
-1.082, -8.328e-5
-1.083, -8.327e-5
-1.084, -8.328e-5
-1.085, -8.327e-5
-1.086, -8.326e-5
-1.087, -8.326e-5
-1.088, -8.325e-5
-1.089, -8.325e-5
-1.090, -8.324e-5
-1.091, -8.325e-5
-1.092, -8.324e-5
-1.093, -8.324e-5
-1.094, -8.324e-5
-1.095, -8.323e-5
-1.096, -8.324e-5
-1.097, -8.323e-5
-1.098, -8.323e-5
-1.099, -8.324e-5
-1.100, -8.324e-5
-1.101, -8.324e-5
-1.102, -8.323e-5
-1.103, -8.323e-5
-1.104, -8.324e-5
-1.105, -8.323e-5
-1.106, -8.324e-5
-1.107, -8.323e-5
-1.108, -8.324e-5
-1.109, -8.324e-5
-1.110, -8.323e-5
-1.111, -8.324e-5
-1.112, -8.325e-5
-1.113, -8.324e-5
-1.114, -8.325e-5
-1.115, -8.325e-5
-1.116, -8.327e-5
-1.117, -8.327e-5
-1.118, -8.327e-5
-1.119, -8.329e-5
-1.120, -8.328e-5
-1.121, -8.330e-5
-1.122, -8.331e-5
-1.123, -8.331e-5
-1.124, -8.333e-5
-1.125, -8.333e-5
-1.126, -8.336e-5
-1.127, -8.337e-5
-1.128, -8.338e-5
-1.129, -8.340e-5
-1.130, -8.340e-5
-1.131, -8.342e-5
-1.132, -8.344e-5
-1.133, -8.345e-5
-1.134, -8.347e-5
-1.135, -8.348e-5
-1.136, -8.351e-5
-1.137, -8.353e-5
-1.138, -8.354e-5
-1.139, -8.356e-5
-1.140, -8.359e-5
-1.141, -8.362e-5
-1.142, -8.365e-5
-1.143, -8.367e-5
-1.144, -8.370e-5
-1.145, -8.372e-5
-1.146, -8.376e-5
-1.147, -8.378e-5
-1.148, -8.381e-5
-1.149, -8.385e-5
-1.150, -8.387e-5
-1.151, -8.392e-5
-1.152, -8.397e-5
-1.153, -8.399e-5
-1.154, -8.404e-5
-1.155, -8.407e-5
-1.156, -8.412e-5
-1.157, -8.416e-5
-1.158, -8.419e-5
-1.159, -8.425e-5
-1.160, -8.429e-5
-1.161, -8.434e-5
-1.162, -8.439e-5
-1.163, -8.444e-5
-1.164, -8.450e-5
-1.165, -8.455e-5
-1.166, -8.461e-5
-1.167, -8.466e-5
-1.168, -8.472e-5
-1.169, -8.480e-5
-1.170, -8.484e-5
-1.171, -8.492e-5
-1.172, -8.499e-5
-1.173, -8.506e-5
-1.174, -8.513e-5
-1.175, -8.519e-5
-1.176, -8.528e-5
-1.177, -8.535e-5
-1.178, -8.542e-5
-1.179, -8.550e-5
-1.180, -8.559e-5
-1.181, -8.568e-5
-1.182, -8.576e-5
-1.183, -8.586e-5
-1.184, -8.595e-5
-1.185, -8.604e-5
-1.186, -8.614e-5
-1.187, -8.622e-5
-1.188, -8.633e-5
-1.189, -8.644e-5
-1.190, -8.651e-5
-1.191, -8.664e-5
-1.192, -8.675e-5
-1.193, -8.685e-5
-1.194, -8.698e-5
-1.195, -8.707e-5
-1.196, -8.721e-5
-1.197, -8.732e-5
-1.198, -8.744e-5
-1.199, -8.758e-5
-1.200, -8.769e-5
-1.201, -8.783e-5
-1.202, -8.796e-5
-1.203, -8.811e-5
-1.204, -8.826e-5
-1.205, -8.838e-5
-1.206, -8.852e-5
-1.207, -8.866e-5
-1.208, -8.881e-5
-1.209, -8.896e-5
-1.210, -8.909e-5
-1.211, -8.926e-5
-1.212, -8.942e-5
-1.213, -8.957e-5
-1.214, -8.974e-5
-1.215, -8.989e-5
-1.216, -9.004e-5
-1.217, -9.021e-5
-1.218, -9.037e-5
-1.219, -9.055e-5
-1.220, -9.071e-5
-1.221, -9.089e-5
-1.222, -9.105e-5
-1.223, -9.123e-5
-1.224, -9.142e-5
-1.225, -9.158e-5
-1.226, -9.176e-5
-1.227, -9.193e-5
-1.228, -9.210e-5
-1.229, -9.225e-5
-1.230, -9.242e-5
-1.231, -9.263e-5
-1.232, -9.281e-5
-1.233, -9.299e-5
-1.234, -9.319e-5
-1.235, -9.334e-5
-1.236, -9.356e-5
-1.237, -9.373e-5
-1.238, -9.391e-5
-1.239, -9.410e-5
-1.240, -9.426e-5
-1.241, -9.445e-5
-1.242, -9.461e-5
-1.243, -9.480e-5
-1.244, -9.498e-5
-1.245, -9.515e-5
-1.246, -9.535e-5
-1.247, -9.551e-5
-1.248, -9.568e-5
-1.249, -9.586e-5
-1.250, -9.602e-5
-1.251, -9.619e-5
-1.252, -9.636e-5
-1.253, -9.653e-5
-1.254, -9.673e-5
-1.255, -9.687e-5
-1.256, -9.704e-5
-1.257, -9.719e-5
-1.258, -9.735e-5
-1.259, -9.750e-5
-1.260, -9.764e-5
-1.261, -9.781e-5
-1.262, -9.794e-5
-1.263, -9.810e-5
-1.264, -9.824e-5
-1.265, -9.837e-5
-1.266, -9.853e-5
-1.267, -9.864e-5
-1.268, -9.879e-5
-1.269, -9.894e-5
-1.270, -9.906e-5
-1.271, -9.921e-5
-1.272, -9.933e-5
-1.273, -9.945e-5
-1.274, -9.958e-5
-1.275, -9.970e-5
-1.276, -9.983e-5
-1.277, -9.995e-5
-1.278, -1.001e-4
-1.279, -1.002e-4
-1.280, -1.003e-4
-1.281, -1.004e-4
-1.282, -1.005e-4
-1.283, -1.006e-4
-1.284, -1.008e-4
-1.285, -1.009e-4
-1.286, -1.010e-4
-1.287, -1.011e-4
-1.288, -1.012e-4
-1.289, -1.013e-4
-1.290, -1.014e-4
-1.291, -1.015e-4
-1.292, -1.016e-4
-1.293, -1.017e-4
-1.294, -1.018e-4
-1.295, -1.019e-4
-1.296, -1.020e-4
-1.297, -1.021e-4
-1.298, -1.022e-4
-1.299, -1.023e-4
-1.300, -1.017e-4
-1.299, -1.008e-4
-1.298, -1.002e-4
-1.297, -9.965e-5
-1.296, -9.918e-5
-1.295, -9.871e-5
-1.294, -9.828e-5
-1.293, -9.787e-5
-1.292, -9.747e-5
-1.291, -9.708e-5
-1.290, -9.667e-5
-1.289, -9.630e-5
-1.288, -9.591e-5
-1.287, -9.554e-5
-1.286, -9.518e-5
-1.285, -9.482e-5
-1.284, -9.446e-5
-1.283, -9.409e-5
-1.282, -9.374e-5
-1.281, -9.340e-5
-1.280, -9.304e-5
-1.279, -9.270e-5
-1.278, -9.234e-5
-1.277, -9.201e-5
-1.276, -9.168e-5
-1.275, -9.133e-5
-1.274, -9.101e-5
-1.273, -9.066e-5
-1.272, -9.033e-5
-1.271, -9.000e-5
-1.270, -8.966e-5
-1.269, -8.934e-5
-1.268, -8.900e-5
-1.267, -8.870e-5
-1.266, -8.837e-5
-1.265, -8.803e-5
-1.264, -8.772e-5
-1.263, -8.738e-5
-1.262, -8.708e-5
-1.261, -8.676e-5
-1.260, -8.643e-5
-1.259, -8.612e-5
-1.258, -8.579e-5
-1.257, -8.548e-5
-1.256, -8.517e-5
-1.255, -8.484e-5
-1.254, -8.453e-5
-1.253, -8.423e-5
-1.252, -8.392e-5
-1.251, -8.363e-5
-1.250, -8.331e-5
-1.249, -8.303e-5
-1.248, -8.272e-5
-1.247, -8.242e-5
-1.246, -8.214e-5
-1.245, -8.186e-5
-1.244, -8.157e-5
-1.243, -8.128e-5
-1.242, -8.102e-5
-1.241, -8.074e-5
-1.240, -8.045e-5
-1.239, -8.019e-5
-1.238, -7.991e-5
-1.237, -7.964e-5
-1.236, -7.939e-5
-1.235, -7.912e-5
-1.234, -7.887e-5
-1.233, -7.861e-5
-1.232, -7.837e-5
-1.231, -7.812e-5
-1.230, -7.787e-5
-1.229, -7.769e-5
-1.228, -7.743e-5
-1.227, -7.720e-5
-1.226, -7.696e-5
-1.225, -7.674e-5
-1.224, -7.652e-5
-1.223, -7.630e-5
-1.222, -7.610e-5
-1.221, -7.590e-5
-1.220, -7.568e-5
-1.219, -7.549e-5
-1.218, -7.529e-5
-1.217, -7.509e-5
-1.216, -7.493e-5
-1.215, -7.472e-5
-1.214, -7.455e-5
-1.213, -7.437e-5
-1.212, -7.419e-5
-1.211, -7.403e-5
-1.210, -7.386e-5
-1.209, -7.370e-5
-1.208, -7.353e-5
-1.207, -7.337e-5
-1.206, -7.322e-5
-1.205, -7.307e-5
-1.204, -7.292e-5
-1.203, -7.275e-5
-1.202, -7.263e-5
-1.201, -7.250e-5
-1.200, -7.236e-5
-1.199, -7.223e-5
-1.198, -7.210e-5
-1.197, -7.198e-5
-1.196, -7.185e-5
-1.195, -7.172e-5
-1.194, -7.161e-5
-1.193, -7.149e-5
-1.192, -7.138e-5
-1.191, -7.128e-5
-1.190, -7.116e-5
-1.189, -7.106e-5
-1.188, -7.095e-5
-1.187, -7.084e-5
-1.186, -7.075e-5
-1.185, -7.064e-5
-1.184, -7.055e-5
-1.183, -7.046e-5
-1.182, -7.036e-5
-1.181, -7.028e-5
-1.180, -7.017e-5
-1.179, -7.009e-5
-1.178, -7.001e-5
-1.177, -6.991e-5
-1.176, -6.984e-5
-1.175, -6.974e-5
-1.174, -6.967e-5
-1.173, -6.959e-5
-1.172, -6.951e-5
-1.171, -6.944e-5
-1.170, -6.936e-5
-1.169, -6.929e-5
-1.168, -6.922e-5
-1.167, -6.914e-5
-1.166, -6.908e-5
-1.165, -6.902e-5
-1.164, -6.895e-5
-1.163, -6.887e-5
-1.162, -6.881e-5
-1.161, -6.875e-5
-1.160, -6.868e-5
-1.159, -6.862e-5
-1.158, -6.856e-5
-1.157, -6.850e-5
-1.156, -6.844e-5
-1.155, -6.837e-5
-1.154, -6.832e-5
-1.153, -6.827e-5
-1.152, -6.819e-5
-1.151, -6.815e-5
-1.150, -6.809e-5
-1.149, -6.805e-5
-1.148, -6.799e-5
-1.147, -6.793e-5
-1.146, -6.789e-5
-1.145, -6.782e-5
-1.144, -6.778e-5
-1.143, -6.772e-5
-1.142, -6.767e-5
-1.141, -6.763e-5
-1.140, -6.757e-5
-1.139, -6.754e-5
-1.138, -6.748e-5
-1.137, -6.743e-5
-1.136, -6.739e-5
-1.135, -6.733e-5
-1.134, -6.729e-5
-1.133, -6.724e-5
-1.132, -6.719e-5
-1.131, -6.715e-5
-1.130, -6.710e-5
-1.129, -6.706e-5
-1.128, -6.701e-5
-1.127, -6.696e-5
-1.126, -6.692e-5
-1.125, -6.688e-5
-1.124, -6.684e-5
-1.123, -6.679e-5
-1.122, -6.675e-5
-1.121, -6.671e-5
-1.120, -6.666e-5
-1.119, -6.662e-5
-1.118, -6.659e-5
-1.117, -6.654e-5
-1.116, -6.650e-5
-1.115, -6.645e-5
-1.114, -6.642e-5
-1.113, -6.638e-5
-1.112, -6.634e-5
-1.111, -6.630e-5
-1.110, -6.626e-5
-1.109, -6.622e-5
-1.108, -6.618e-5
-1.107, -6.614e-5
-1.106, -6.611e-5
-1.105, -6.605e-5
-1.104, -6.602e-5
-1.103, -6.598e-5
-1.102, -6.593e-5
-1.101, -6.589e-5
-1.100, -6.585e-5
-1.099, -6.581e-5
-1.098, -6.577e-5
-1.097, -6.573e-5
-1.096, -6.570e-5
-1.095, -6.565e-5
-1.094, -6.561e-5
-1.093, -6.557e-5
-1.092, -6.552e-5
-1.091, -6.549e-5
-1.090, -6.544e-5
-1.089, -6.540e-5
-1.088, -6.536e-5
-1.087, -6.531e-5
-1.086, -6.527e-5
-1.085, -6.522e-5
-1.084, -6.518e-5
-1.083, -6.514e-5
-1.082, -6.509e-5
-1.081, -6.504e-5
-1.080, -6.499e-5
-1.079, -6.495e-5
-1.078, -6.490e-5
-1.077, -6.485e-5
-1.076, -6.480e-5
-1.075, -6.475e-5
-1.074, -6.470e-5
-1.073, -6.465e-5
-1.072, -6.459e-5
-1.071, -6.454e-5
-1.070, -6.448e-5
-1.069, -6.443e-5
-1.068, -6.437e-5
-1.067, -6.431e-5
-1.066, -6.427e-5
-1.065, -6.420e-5
-1.064, -6.415e-5
-1.063, -6.408e-5
-1.062, -6.401e-5
-1.061, -6.396e-5
-1.060, -6.388e-5
-1.059, -6.382e-5
-1.058, -6.375e-5
-1.057, -6.367e-5
-1.056, -6.361e-5
-1.055, -6.352e-5
-1.054, -6.345e-5
-1.053, -6.337e-5
-1.052, -6.328e-5
-1.051, -6.321e-5
-1.050, -6.310e-5
-1.049, -6.303e-5
-1.048, -6.293e-5
-1.047, -6.283e-5
-1.046, -6.275e-5
-1.045, -6.265e-5
-1.044, -6.255e-5
-1.043, -6.244e-5
-1.042, -6.233e-5
-1.041, -6.223e-5
-1.040, -6.211e-5
-1.039, -6.200e-5
-1.038, -6.187e-5
-1.037, -6.177e-5
-1.036, -6.164e-5
-1.035, -6.150e-5
-1.034, -6.138e-5
-1.033, -6.124e-5
-1.032, -6.109e-5
-1.031, -6.094e-5
-1.030, -6.079e-5
-1.029, -6.065e-5
-1.028, -6.047e-5
-1.027, -6.032e-5
-1.026, -6.015e-5
-1.025, -5.996e-5
-1.024, -5.986e-5
-1.023, -5.963e-5
-1.022, -5.944e-5
-1.021, -5.926e-5
-1.020, -5.902e-5
-1.019, -5.885e-5
-1.018, -5.861e-5
-1.017, -5.839e-5
-1.016, -5.819e-5
-1.015, -5.792e-5
-1.014, -5.770e-5
-1.013, -5.745e-5
-1.012, -5.719e-5
-1.011, -5.698e-5
-1.010, -5.668e-5
-1.009, -5.642e-5
-1.008, -5.612e-5
-1.007, -5.584e-5
-1.006, -5.555e-5
-1.005, -5.523e-5
-1.004, -5.494e-5
-1.003, -5.459e-5
-1.002, -5.427e-5
-1.001, -5.394e-5
-1.000, -5.358e-5
-0.999, -5.322e-5
-0.998, -5.281e-5
-0.997, -5.248e-5
-0.996, -5.209e-5
-0.995, -5.170e-5
-0.994, -5.133e-5
-0.993, -5.090e-5
-0.992, -5.052e-5
-0.991, -5.009e-5
-0.990, -4.961e-5
-0.989, -4.923e-5
-0.988, -4.872e-5
-0.987, -4.828e-5
-0.986, -4.786e-5
-0.985, -4.736e-5
-0.984, -4.690e-5
-0.983, -4.635e-5
-0.982, -4.588e-5
-0.981, -4.538e-5
-0.980, -4.482e-5
-0.979, -4.434e-5
-0.978, -4.376e-5
-0.977, -4.324e-5
-0.976, -4.270e-5
-0.975, -4.210e-5
-0.974, -4.158e-5
-0.973, -4.102e-5
-0.972, -4.044e-5
-0.971, -3.983e-5
-0.970, -3.926e-5
-0.969, -3.868e-5
-0.968, -3.804e-5
-0.967, -3.745e-5
-0.966, -3.689e-5
-0.965, -3.625e-5
-0.964, -3.567e-5
-0.963, -3.502e-5
-0.962, -3.445e-5
-0.961, -3.382e-5
-0.960, -3.327e-5
-0.959, -3.263e-5
-0.958, -3.196e-5
-0.957, -3.140e-5
-0.956, -3.074e-5
-0.955, -3.010e-5
-0.954, -2.953e-5
-0.953, -2.888e-5
-0.952, -2.830e-5
-0.951, -2.769e-5
-0.950, -2.703e-5
-0.949, -2.649e-5
-0.948, -2.584e-5
-0.947, -2.520e-5
-0.946, -2.463e-5
-0.945, -2.404e-5
-0.944, -2.353e-5
-0.943, -2.286e-5
-0.942, -2.238e-5
-0.941, -2.184e-5
-0.940, -2.125e-5
-0.939, -2.073e-5
-0.938, -2.018e-5
-0.937, -1.966e-5
-0.936, -1.915e-5
-0.935, -1.863e-5
-0.934, -1.821e-5
-0.933, -1.768e-5
-0.932, -1.719e-5
-0.931, -1.672e-5
-0.930, -1.624e-5
-0.929, -1.580e-5
-0.928, -1.534e-5
-0.927, -1.491e-5
-0.926, -1.448e-5
-0.925, -1.404e-5
-0.924, -1.368e-5
-0.923, -1.324e-5
-0.922, -1.283e-5
-0.921, -1.246e-5
-0.920, -1.208e-5
-0.919, -1.175e-5
-0.918, -1.138e-5
-0.917, -1.108e-5
-0.916, -1.073e-5
-0.915, -1.041e-5
-0.914, -1.012e-5
-0.913, -9.786e-6
-0.912, -9.528e-6
-0.911, -9.240e-6
-0.910, -8.950e-6
-0.909, -8.746e-6
-0.908, -8.459e-6
-0.907, -8.208e-6
-0.906, -7.963e-6
-0.905, -7.724e-6
-0.904, -7.516e-6
-0.903, -7.271e-6
-0.902, -7.074e-6
-0.901, -6.878e-6
-0.900, -6.670e-6
-0.899, -6.493e-6
-0.898, -6.288e-6
-0.897, -6.134e-6
-0.896, -5.930e-6
-0.895, -5.774e-6
-0.894, -5.653e-6
-0.893, -5.487e-6
-0.892, -5.352e-6
-0.891, -5.221e-6
-0.890, -5.087e-6
-0.889, -4.981e-6
-0.888, -4.847e-6
-0.887, -4.743e-6
-0.886, -4.638e-6
-0.885, -4.530e-6
-0.884, -4.441e-6
-0.883, -4.369e-6
-0.882, -4.270e-6
-0.881, -4.195e-6
-0.880, -4.107e-6
-0.879, -4.047e-6
-0.878, -3.968e-6
-0.877, -3.921e-6
-0.876, -3.851e-6
-0.875, -3.783e-6
-0.874, -3.753e-6
-0.873, -3.697e-6
-0.872, -3.653e-6
-0.871, -3.610e-6
-0.870, -3.567e-6
-0.869, -3.546e-6
-0.868, -3.503e-6
-0.867, -3.477e-6
-0.866, -3.456e-6
-0.865, -3.421e-6
-0.864, -3.416e-6
-0.863, -3.385e-6
-0.862, -3.369e-6
-0.861, -3.367e-6
-0.860, -3.338e-6
-0.859, -3.340e-6
-0.858, -3.338e-6
-0.857, -3.324e-6
-0.856, -3.316e-6
-0.855, -3.301e-6
-0.854, -3.305e-6
-0.853, -3.296e-6
-0.852, -3.291e-6
-0.851, -3.295e-6
-0.850, -3.283e-6
-0.849, -3.288e-6
-0.848, -3.282e-6
-0.847, -3.276e-6
-0.846, -3.283e-6
-0.845, -3.261e-6
-0.844, -3.273e-6
-0.843, -3.266e-6
-0.842, -3.266e-6
-0.841, -3.266e-6
-0.840, -3.260e-6
-0.839, -3.259e-6
-0.838, -3.257e-6
-0.837, -3.256e-6
-0.836, -3.251e-6
-0.835, -3.242e-6
-0.834, -3.243e-6
-0.833, -3.239e-6
-0.832, -3.244e-6
-0.831, -3.240e-6
-0.830, -3.223e-6
-0.829, -3.230e-6
-0.828, -3.213e-6
-0.827, -3.210e-6
-0.826, -3.215e-6
-0.825, -3.201e-6
-0.824, -3.200e-6
-0.823, -3.190e-6
-0.822, -3.186e-6
-0.821, -3.186e-6
-0.820, -3.177e-6
-0.819, -3.193e-6
-0.818, -3.175e-6
-0.817, -3.167e-6
-0.816, -3.170e-6
-0.815, -3.153e-6
-0.814, -3.158e-6
-0.813, -3.154e-6
-0.812, -3.147e-6
-0.811, -3.146e-6
-0.810, -3.139e-6
-0.809, -3.143e-6
-0.808, -3.140e-6
-0.807, -3.135e-6
-0.806, -3.144e-6
-0.805, -3.135e-6
-0.804, -3.139e-6
-0.803, -3.136e-6
-0.802, -3.135e-6
-0.801, -3.137e-6
-0.800, -3.133e-6
-0.799, -3.139e-6
-0.798, -3.135e-6
-0.797, -3.140e-6
-0.796, -3.146e-6
-0.795, -3.138e-6
-0.794, -3.143e-6
-0.793, -3.150e-6
-0.792, -3.146e-6
-0.791, -3.159e-6
-0.790, -3.155e-6
-0.789, -3.167e-6
-0.788, -3.170e-6
-0.787, -3.173e-6
-0.786, -3.186e-6
-0.785, -3.185e-6
-0.784, -3.195e-6
-0.783, -3.197e-6
-0.782, -3.203e-6
-0.781, -3.228e-6
-0.780, -3.219e-6
-0.779, -3.235e-6
-0.778, -3.244e-6
-0.777, -3.250e-6
-0.776, -3.263e-6
-0.775, -3.263e-6
-0.774, -3.279e-6
-0.773, -3.284e-6
-0.772, -3.290e-6
-0.771, -3.303e-6
-0.770, -3.308e-6
-0.769, -3.323e-6
-0.768, -3.336e-6
-0.767, -3.342e-6
-0.766, -3.354e-6
-0.765, -3.366e-6
-0.764, -3.375e-6
-0.763, -3.388e-6
-0.762, -3.395e-6
-0.761, -3.413e-6
-0.760, -3.416e-6
-0.759, -3.429e-6
-0.758, -3.442e-6
-0.757, -3.455e-6
-0.756, -3.471e-6
-0.755, -3.478e-6
-0.754, -3.496e-6
-0.753, -3.503e-6
-0.752, -3.511e-6
-0.751, -3.527e-6
-0.750, -3.532e-6
-0.749, -3.549e-6
-0.748, -3.559e-6
-0.747, -3.566e-6
-0.746, -3.591e-6
-0.745, -3.589e-6
-0.744, -3.610e-6
-0.743, -3.613e-6
-0.742, -3.625e-6
-0.741, -3.643e-6
-0.740, -3.646e-6
-0.739, -3.664e-6
-0.738, -3.676e-6
-0.737, -3.687e-6
-0.736, -3.702e-6
-0.735, -3.705e-6
-0.734, -3.724e-6
-0.733, -3.739e-6
-0.732, -3.744e-6
-0.731, -3.762e-6
-0.730, -3.767e-6
-0.729, -3.781e-6
-0.728, -3.788e-6
-0.727, -3.792e-6
-0.726, -3.809e-6
-0.725, -3.816e-6
-0.724, -3.832e-6
-0.723, -3.836e-6
-0.722, -3.846e-6
-0.721, -3.865e-6
-0.720, -3.869e-6
-0.719, -3.880e-6
-0.718, -3.890e-6
-0.717, -3.893e-6
-0.716, -3.910e-6
-0.715, -3.907e-6
-0.714, -3.926e-6
-0.713, -3.933e-6
-0.712, -3.942e-6
-0.711, -3.954e-6
-0.710, -3.956e-6
-0.709, -3.976e-6
-0.708, -3.979e-6
-0.707, -3.987e-6
-0.706, -4.001e-6
-0.705, -4.002e-6
-0.704, -4.022e-6
-0.703, -4.024e-6
-0.702, -4.027e-6
-0.701, -4.045e-6
-0.700, -4.043e-6
-0.699, -4.053e-6
-0.698, -4.061e-6
-0.697, -4.063e-6
-0.696, -4.079e-6
-0.695, -4.076e-6
-0.694, -4.089e-6
-0.693, -4.096e-6
-0.692, -4.096e-6
-0.691, -4.104e-6
-0.690, -4.111e-6
-0.689, -4.123e-6
-0.688, -4.128e-6
-0.687, -4.131e-6
-0.686, -4.144e-6
-0.685, -4.148e-6
-0.684, -4.154e-6
-0.683, -4.161e-6
-0.682, -4.167e-6
-0.681, -4.180e-6
-0.680, -4.177e-6
-0.679, -4.197e-6
-0.678, -4.201e-6
-0.677, -4.206e-6
-0.676, -4.214e-6
-0.675, -4.213e-6
-0.674, -4.228e-6
-0.673, -4.227e-6
-0.672, -4.230e-6
-0.671, -4.243e-6
-0.670, -4.243e-6
-0.669, -4.253e-6
-0.668, -4.257e-6
-0.667, -4.258e-6
-0.666, -4.275e-6
-0.665, -4.268e-6
-0.664, -4.276e-6
-0.663, -4.282e-6
-0.662, -4.288e-6
-0.661, -4.300e-6
-0.660, -4.295e-6
-0.659, -4.305e-6
-0.658, -4.307e-6
-0.657, -4.315e-6
-0.656, -4.324e-6
-0.655, -4.316e-6
-0.654, -4.328e-6
-0.653, -4.342e-6
-0.652, -4.335e-6
-0.651, -4.346e-6
-0.650, -4.342e-6
-0.649, -4.352e-6
-0.648, -4.353e-6
-0.647, -4.348e-6
-0.646, -4.360e-6
-0.645, -4.360e-6
-0.644, -4.367e-6
-0.643, -4.369e-6
-0.642, -4.370e-6
-0.641, -4.381e-6
-0.640, -4.370e-6
-0.639, -4.381e-6
-0.638, -4.383e-6
-0.637, -4.385e-6
-0.636, -4.393e-6
-0.635, -4.388e-6
-0.634, -4.399e-6
-0.633, -4.396e-6
-0.632, -4.397e-6
-0.631, -4.404e-6
-0.630, -4.400e-6
-0.629, -4.409e-6
-0.628, -4.408e-6
-0.627, -4.412e-6
-0.626, -4.418e-6
-0.625, -4.413e-6
-0.624, -4.421e-6
-0.623, -4.414e-6
-0.622, -4.419e-6
-0.621, -4.425e-6
-0.620, -4.419e-6
-0.619, -4.421e-6
-0.618, -4.423e-6
-0.617, -4.421e-6
-0.616, -4.430e-6
-0.615, -4.433e-6
-0.614, -4.436e-6
-0.613, -4.432e-6
-0.612, -4.429e-6
-0.611, -4.432e-6
-0.610, -4.428e-6
-0.609, -4.431e-6
-0.608, -4.432e-6
-0.607, -4.424e-6
-0.606, -4.430e-6
-0.605, -4.426e-6
-0.604, -4.429e-6
-0.603, -4.424e-6
-0.602, -4.432e-6
-0.601, -4.433e-6
-0.600, -4.427e-6
-0.599, -4.425e-6
-0.598, -4.423e-6
-0.597, -4.421e-6
-0.596, -4.424e-6
-0.595, -4.414e-6
-0.594, -4.422e-6
-0.593, -4.418e-6
-0.592, -4.415e-6
-0.591, -4.418e-6
-0.590, -4.409e-6
-0.589, -4.408e-6
-0.588, -4.408e-6
-0.587, -4.403e-6
-0.586, -4.410e-6
-0.585, -4.399e-6
-0.584, -4.404e-6
-0.583, -4.400e-6
-0.582, -4.398e-6
-0.581, -4.401e-6
-0.580, -4.390e-6
-0.579, -4.394e-6
-0.578, -4.389e-6
-0.577, -4.383e-6
-0.576, -4.396e-6
-0.575, -4.381e-6
-0.574, -4.381e-6
-0.573, -4.379e-6
-0.572, -4.375e-6
-0.571, -4.376e-6
-0.570, -4.371e-6
-0.569, -4.373e-6
-0.568, -4.370e-6
-0.567, -4.362e-6
-0.566, -4.368e-6
-0.565, -4.359e-6
-0.564, -4.358e-6
-0.563, -4.355e-6
-0.562, -4.354e-6
-0.561, -4.354e-6
-0.560, -4.346e-6
-0.559, -4.349e-6
-0.558, -4.344e-6
-0.557, -4.341e-6
-0.556, -4.341e-6
-0.555, -4.331e-6
-0.554, -4.337e-6
-0.553, -4.327e-6
-0.552, -4.324e-6
-0.551, -4.330e-6
-0.550, -4.318e-6
-0.549, -4.321e-6
-0.548, -4.309e-6
-0.547, -4.305e-6
-0.546, -4.316e-6
-0.545, -4.298e-6
-0.544, -4.303e-6
-0.543, -4.295e-6
-0.542, -4.291e-6
-0.541, -4.294e-6
-0.540, -4.281e-6
-0.539, -4.279e-6
-0.538, -4.270e-6
-0.537, -4.269e-6
-0.536, -4.271e-6
-0.535, -4.260e-6
-0.534, -4.266e-6
-0.533, -4.260e-6
-0.532, -4.252e-6
-0.531, -4.250e-6
-0.530, -4.243e-6
-0.529, -4.248e-6
-0.528, -4.240e-6
-0.527, -4.235e-6
-0.526, -4.229e-6
-0.525, -4.233e-6
-0.524, -4.229e-6
-0.523, -4.217e-6
-0.522, -4.215e-6
-0.521, -4.214e-6
-0.520, -4.201e-6
-0.519, -4.203e-6
-0.518, -4.192e-6
-0.517, -4.188e-6
-0.516, -4.188e-6
-0.515, -4.172e-6
-0.514, -4.178e-6
-0.513, -4.166e-6
-0.512, -4.151e-6
-0.511, -4.157e-6
-0.510, -4.143e-6
-0.509, -4.150e-6
-0.508, -4.138e-6
-0.507, -4.129e-6
-0.506, -4.134e-6
-0.505, -4.118e-6
-0.504, -4.121e-6
-0.503, -4.111e-6
-0.502, -4.106e-6
-0.501, -4.106e-6
-0.500, -4.094e-6
-0.499, -4.099e-6
-0.498, -4.090e-6
-0.497, -4.079e-6
-0.496, -4.081e-6
-0.495, -4.065e-6
-0.494, -4.068e-6
-0.493, -4.060e-6
-0.492, -4.052e-6
-0.491, -4.049e-6
-0.490, -4.038e-6
-0.489, -4.038e-6
-0.488, -4.027e-6
-0.487, -4.015e-6
-0.486, -4.015e-6
-0.485, -4.007e-6
-0.484, -4.006e-6
-0.483, -3.993e-6
-0.482, -3.990e-6
-0.481, -3.984e-6
-0.480, -3.969e-6
-0.479, -3.969e-6
-0.478, -3.957e-6
-0.477, -3.950e-6
-0.476, -3.946e-6
-0.475, -3.928e-6
-0.474, -3.938e-6
-0.473, -3.918e-6
-0.472, -3.913e-6
-0.471, -3.907e-6
-0.470, -3.891e-6
-0.469, -3.896e-6
-0.468, -3.879e-6
-0.467, -3.872e-6
-0.466, -3.866e-6
-0.465, -3.855e-6
-0.464, -3.852e-6
-0.463, -3.835e-6
-0.462, -3.826e-6
-0.461, -3.827e-6
-0.460, -3.808e-6
-0.459, -3.804e-6
-0.458, -3.794e-6
-0.457, -3.781e-6
-0.456, -3.777e-6
-0.455, -3.762e-6
-0.454, -3.758e-6
-0.453, -3.748e-6
-0.452, -3.737e-6
-0.451, -3.729e-6
-0.450, -3.716e-6
-0.449, -3.711e-6
-0.448, -3.701e-6
-0.447, -3.682e-6
-0.446, -3.677e-6
-0.445, -3.659e-6
-0.444, -3.653e-6
-0.443, -3.636e-6
-0.442, -3.630e-6
-0.441, -3.620e-6
-0.440, -3.605e-6
-0.439, -3.597e-6
-0.438, -3.586e-6
-0.437, -3.574e-6
-0.436, -3.559e-6
-0.435, -3.538e-6
-0.434, -3.539e-6
-0.433, -3.525e-6
-0.432, -3.510e-6
-0.431, -3.503e-6
-0.430, -3.486e-6
-0.429, -3.483e-6
-0.428, -3.463e-6
-0.427, -3.448e-6
-0.426, -3.438e-6
-0.425, -3.422e-6
-0.424, -3.413e-6
-0.423, -3.402e-6
-0.422, -3.387e-6
-0.421, -3.381e-6
-0.420, -3.355e-6
-0.419, -3.346e-6
-0.418, -3.331e-6
-0.417, -3.315e-6
-0.416, -3.308e-6
-0.415, -3.282e-6
-0.414, -3.276e-6
-0.413, -3.263e-6
-0.412, -3.243e-6
-0.411, -3.236e-6
-0.410, -3.236e-6
-0.409, -3.216e-6
-0.408, -3.192e-6
-0.407, -3.174e-6
-0.406, -3.162e-6
-0.405, -3.142e-6
-0.404, -3.127e-6
-0.403, -3.113e-6
-0.402, -3.096e-6
-0.401, -3.081e-6
-0.400, -3.059e-6
-0.399, -3.050e-6
-0.398, -3.028e-6
-0.397, -3.022e-6
-0.396, -3.002e-6
-0.395, -2.978e-6
-0.394, -2.971e-6
-0.393, -2.954e-6
-0.392, -2.932e-6
-0.391, -2.921e-6
-0.390, -2.897e-6
-0.389, -2.885e-6
-0.388, -2.860e-6
-0.387, -2.847e-6
-0.386, -2.834e-6
-0.385, -2.808e-6
-0.384, -2.789e-6
-0.383, -2.774e-6
-0.382, -2.755e-6
-0.381, -2.747e-6
-0.380, -2.715e-6
-0.379, -2.704e-6
-0.378, -2.685e-6
-0.377, -2.665e-6
-0.376, -2.652e-6
-0.375, -2.625e-6
-0.374, -2.612e-6
-0.373, -2.589e-6
-0.372, -2.568e-6
-0.371, -2.561e-6
-0.370, -2.534e-6
-0.369, -2.518e-6
-0.368, -2.499e-6
-0.367, -2.476e-6
-0.366, -2.460e-6
-0.365, -2.437e-6
-0.364, -2.422e-6
-0.363, -2.400e-6
-0.362, -2.381e-6
-0.361, -2.364e-6
-0.360, -2.338e-6
-0.359, -2.325e-6
-0.358, -2.300e-6
-0.357, -2.286e-6
-0.356, -2.265e-6
-0.355, -2.236e-6
-0.354, -2.225e-6
-0.353, -2.200e-6
-0.352, -2.179e-6
-0.351, -2.161e-6
-0.350, -2.136e-6
-0.349, -2.123e-6
-0.348, -2.097e-6
-0.347, -2.074e-6
-0.346, -2.064e-6
-0.345, -2.036e-6
-0.344, -2.021e-6
-0.343, -1.996e-6
-0.342, -1.975e-6
-0.341, -1.959e-6
-0.340, -1.934e-6
-0.339, -1.918e-6
-0.338, -1.897e-6
-0.337, -1.872e-6
-0.336, -1.854e-6
-0.335, -1.825e-6
-0.334, -1.812e-6
-0.333, -1.785e-6
-0.332, -1.765e-6
-0.331, -1.745e-6
-0.330, -1.718e-6
-0.329, -1.702e-6
-0.328, -1.678e-6
-0.327, -1.656e-6
-0.326, -1.639e-6
-0.325, -1.613e-6
-0.324, -1.595e-6
-0.323, -1.571e-6
-0.322, -1.550e-6
-0.321, -1.533e-6
-0.320, -1.513e-6
-0.319, -1.488e-6
-0.318, -1.464e-6
-0.317, -1.445e-6
-0.316, -1.423e-6
-0.315, -1.395e-6
-0.314, -1.381e-6
-0.313, -1.354e-6
-0.312, -1.333e-6
-0.311, -1.316e-6
-0.310, -1.290e-6
-0.309, -1.274e-6
-0.308, -1.244e-6
-0.307, -1.215e-6
-0.306, -1.206e-6
-0.305, -1.179e-6
-0.304, -1.162e-6
-0.303, -1.136e-6
-0.302, -1.114e-6
-0.301, -1.098e-6
-0.300, -1.071e-6
-0.299, -1.056e-6
-0.298, -1.029e-6
-0.297, -1.007e-6
-0.296, -9.887e-7
-0.295, -9.691e-7
-0.294, -9.508e-7
-0.293, -9.262e-7
-0.292, -9.002e-7
-0.291, -8.884e-7
-0.290, -8.596e-7
-0.289, -8.423e-7
-0.288, -8.236e-7
-0.287, -7.967e-7
-0.286, -7.830e-7
-0.285, -7.546e-7
-0.284, -7.366e-7
-0.283, -7.111e-7
-0.282, -6.842e-7
-0.281, -6.753e-7
-0.280, -6.445e-7
-0.279, -6.327e-7
-0.278, -6.068e-7
-0.277, -5.890e-7
-0.276, -5.697e-7
-0.275, -5.440e-7
-0.274, -5.336e-7
-0.273, -5.060e-7
-0.272, -4.833e-7
-0.271, -4.690e-7
-0.270, -4.452e-7
-0.269, -4.365e-7
-0.268, -4.058e-7
-0.267, -3.849e-7
-0.266, -3.727e-7
-0.265, -3.474e-7
-0.264, -3.323e-7
-0.263, -3.081e-7
-0.262, -2.849e-7
-0.261, -2.717e-7
-0.260, -2.435e-7
-0.259, -2.293e-7
-0.258, -2.084e-7
-0.257, -1.874e-7
-0.256, -1.745e-7
-0.255, -1.459e-7
-0.254, -1.326e-7
-0.253, -1.131e-7
-0.252, -8.905e-8
-0.251, -7.512e-8
-0.250, -4.734e-8
-0.249, -3.389e-8
-0.248, -1.119e-8
-0.247, 1.093e-8
-0.246, 2.497e-8
-0.245, 4.563e-8
-0.244, 5.917e-8
-0.243, 7.857e-8
-0.242, 9.942e-8
-0.241, 1.178e-7
-0.240, 1.369e-7
-0.239, 1.499e-7
-0.238, 1.734e-7
-0.237, 1.897e-7
-0.236, 2.050e-7
-0.235, 2.315e-7
-0.234, 2.431e-7
-0.233, 2.623e-7
-0.232, 2.804e-7
-0.231, 3.008e-7
-0.230, 3.245e-7
-0.229, 3.331e-7
-0.228, 3.558e-7
-0.227, 3.725e-7
-0.226, 3.834e-7
-0.225, 4.081e-7
-0.224, 4.170e-7
-0.223, 4.398e-7
-0.222, 4.603e-7
-0.221, 4.715e-7
-0.220, 4.964e-7
-0.219, 5.062e-7
-0.218, 5.201e-7
-0.217, 5.408e-7
-0.216, 5.561e-7
-0.215, 5.811e-7
-0.214, 5.907e-7
-0.213, 6.089e-7
-0.212, 6.287e-7
-0.211, 6.376e-7
-0.210, 6.589e-7
-0.209, 6.722e-7
-0.208, 6.924e-7
-0.207, 7.115e-7
-0.206, 7.256e-7
-0.205, 7.287e-7
-0.204, 7.506e-7
-0.203, 7.751e-7
-0.202, 7.885e-7
-0.201, 8.002e-7
-0.200, 8.244e-7
-0.199, 8.344e-7
-0.198, 8.538e-7
-0.197, 8.683e-7
-0.196, 8.804e-7
-0.195, 9.037e-7
-0.194, 9.120e-7
-0.193, 9.307e-7
-0.192, 9.411e-7
-0.191, 9.621e-7
-0.190, 9.812e-7
-0.189, 9.898e-7
-0.188, 1.009e-6
-0.187, 1.026e-6
-0.186, 1.033e-6
-0.185, 1.059e-6
-0.184, 1.067e-6
-0.183, 1.087e-6
-0.182, 1.102e-6
-0.181, 1.111e-6
-0.180, 1.134e-6
-0.179, 1.150e-6
-0.178, 1.163e-6
-0.177, 1.179e-6
-0.176, 1.190e-6
-0.175, 1.213e-6
-0.174, 1.220e-6
-0.173, 1.237e-6
-0.172, 1.255e-6
-0.171, 1.266e-6
-0.170, 1.286e-6
-0.169, 1.295e-6
-0.168, 1.314e-6
-0.167, 1.326e-6
-0.166, 1.338e-6
-0.165, 1.358e-6
-0.164, 1.366e-6
-0.163, 1.385e-6
-0.162, 1.399e-6
-0.161, 1.410e-6
-0.160, 1.432e-6
-0.159, 1.440e-6
-0.158, 1.458e-6
-0.157, 1.473e-6
-0.156, 1.484e-6
-0.155, 1.507e-6
-0.154, 1.508e-6
-0.153, 1.529e-6
-0.152, 1.546e-6
-0.151, 1.557e-6
-0.150, 1.576e-6
-0.149, 1.583e-6
-0.148, 1.603e-6
-0.147, 1.613e-6
-0.146, 1.625e-6
-0.145, 1.647e-6
-0.144, 1.653e-6
-0.143, 1.677e-6
-0.142, 1.687e-6
-0.141, 1.693e-6
-0.140, 1.720e-6
-0.139, 1.728e-6
-0.138, 1.743e-6
-0.137, 1.758e-6
-0.136, 1.771e-6
-0.135, 1.790e-6
-0.134, 1.799e-6
-0.133, 1.815e-6
-0.132, 1.829e-6
-0.131, 1.843e-6
-0.130, 1.859e-6
-0.129, 1.866e-6
-0.128, 1.893e-6
-0.127, 1.902e-6
-0.126, 1.914e-6
-0.125, 1.930e-6
-0.124, 1.940e-6
-0.123, 1.956e-6
-0.122, 1.968e-6
-0.121, 1.978e-6
-0.120, 1.999e-6
-0.119, 2.006e-6
-0.118, 2.028e-6
-0.117, 2.038e-6
-0.116, 2.051e-6
-0.115, 2.065e-6
-0.114, 2.073e-6
-0.113, 2.095e-6
-0.112, 2.105e-6
-0.111, 2.115e-6
-0.110, 2.136e-6
-0.109, 2.146e-6
-0.108, 2.168e-6
-0.107, 2.181e-6
-0.106, 2.191e-6
-0.105, 2.211e-6
-0.104, 2.219e-6
-0.103, 2.240e-6
-0.102, 2.252e-6
-0.101, 2.261e-6
-0.100, 2.285e-6
-0.099, 2.292e-6
-0.098, 2.310e-6
-0.097, 2.321e-6
-0.096, 2.330e-6
-0.095, 2.351e-6
-0.094, 2.359e-6
-0.093, 2.376e-6
-0.092, 2.392e-6
-0.091, 2.406e-6
-0.090, 2.417e-6
-0.089, 2.430e-6
-0.088, 2.448e-6
-0.087, 2.463e-6
-0.086, 2.472e-6
-0.085, 2.490e-6
-0.084, 2.501e-6
-0.083, 2.520e-6
-0.082, 2.532e-6
-0.081, 2.544e-6
-0.080, 2.560e-6
-0.079, 2.572e-6
-0.078, 2.587e-6
-0.077, 2.607e-6
-0.076, 2.615e-6
-0.075, 2.634e-6
-0.074, 2.640e-6
-0.073, 2.661e-6
-0.072, 2.674e-6
-0.071, 2.686e-6
-0.070, 2.707e-6
-0.069, 2.711e-6
-0.068, 2.733e-6
-0.067, 2.745e-6
-0.066, 2.756e-6
-0.065, 2.776e-6
-0.064, 2.777e-6
-0.063, 2.802e-6
-0.062, 2.814e-6
-0.061, 2.823e-6
-0.060, 2.843e-6
-0.059, 2.851e-6
-0.058, 2.867e-6
-0.057, 2.882e-6
-0.056, 2.895e-6
-0.055, 2.915e-6
-0.054, 2.922e-6
-0.053, 2.939e-6
-0.052, 2.952e-6
-0.051, 2.963e-6
-0.050, 2.982e-6
-0.049, 2.990e-6
-0.048, 3.011e-6
-0.047, 3.024e-6
-0.046, 3.034e-6
-0.045, 3.048e-6
-0.044, 3.058e-6
-0.043, 3.073e-6
-0.042, 3.085e-6
-0.041, 3.097e-6
-0.040, 3.119e-6
-0.039, 3.123e-6
-0.038, 3.144e-6
-0.037, 3.158e-6
-0.036, 3.173e-6
-0.035, 3.193e-6
-0.034, 3.197e-6
-0.033, 3.216e-6
-0.032, 3.229e-6
-0.031, 3.242e-6
-0.030, 3.261e-6
-0.029, 3.269e-6
-0.028, 3.289e-6
-0.027, 3.298e-6
-0.026, 3.314e-6
-0.025, 3.329e-6
-0.024, 3.335e-6
-0.023, 3.354e-6
-0.022, 3.368e-6
-0.021, 3.377e-6
-0.020, 3.397e-6
-0.019, 3.405e-6
-0.018, 3.421e-6
-0.017, 3.432e-6
-0.016, 3.443e-6
-0.015, 3.462e-6
-0.014, 3.472e-6
-0.013, 3.483e-6
-0.012, 3.501e-6
-0.011, 3.517e-6
-0.010, 3.532e-6
-0.009, 3.541e-6
-0.008, 3.558e-6
-0.007, 3.570e-6
-0.006, 3.583e-6
-0.005, 3.597e-6
-0.004, 3.610e-6
-0.003, 3.631e-6
-0.002, 3.641e-6
-0.001, 3.650e-6
-0.000, 3.649e-6
0.001, 3.673e-6
0.002, 3.692e-6
0.003, 3.702e-6
0.004, 3.715e-6
0.005, 3.735e-6
0.006, 3.741e-6
0.007, 3.760e-6
0.008, 3.773e-6
0.009, 3.787e-6
0.010, 3.803e-6
0.011, 3.809e-6
0.012, 3.831e-6
0.013, 3.837e-6
0.014, 3.856e-6
0.015, 3.874e-6
0.016, 3.881e-6
0.017, 3.903e-6
0.018, 3.915e-6
0.019, 3.923e-6
0.020, 3.942e-6
0.021, 3.950e-6
0.022, 3.967e-6
0.023, 3.981e-6
0.024, 3.992e-6
0.025, 4.014e-6
0.026, 4.020e-6
0.027, 4.034e-6
0.028, 4.047e-6
0.029, 4.058e-6
0.030, 4.074e-6
0.031, 4.083e-6
0.032, 4.103e-6
0.033, 4.118e-6
0.034, 4.130e-6
0.035, 4.144e-6
0.036, 4.155e-6
0.037, 4.172e-6
0.038, 4.178e-6
0.039, 4.193e-6
0.040, 4.210e-6
0.041, 4.220e-6
0.042, 4.238e-6
0.043, 4.248e-6
0.044, 4.262e-6
0.045, 4.277e-6
0.046, 4.282e-6
0.047, 4.300e-6
0.048, 4.311e-6
0.049, 4.324e-6
0.050, 4.340e-6
0.051, 4.344e-6
0.052, 4.367e-6
0.053, 4.376e-6
0.054, 4.388e-6
0.055, 4.403e-6
0.056, 4.412e-6
0.057, 4.430e-6
0.058, 4.439e-6
0.059, 4.451e-6
0.060, 4.472e-6
0.061, 4.478e-6
0.062, 4.496e-6
0.063, 4.510e-6
0.064, 4.511e-6
0.065, 4.536e-6
0.066, 4.540e-6
0.067, 4.559e-6
0.068, 4.572e-6
0.069, 4.585e-6
0.070, 4.601e-6
0.071, 4.612e-6
0.072, 4.627e-6
0.073, 4.640e-6
0.074, 4.650e-6
0.075, 4.669e-6
0.076, 4.676e-6
0.077, 4.700e-6
0.078, 4.707e-6
0.079, 4.717e-6
0.080, 4.735e-6
0.081, 4.742e-6
0.082, 4.761e-6
0.083, 4.771e-6
0.084, 4.783e-6
0.085, 4.800e-6
0.086, 4.806e-6
0.087, 4.825e-6
0.088, 4.834e-6
0.089, 4.844e-6
0.090, 4.861e-6
0.091, 4.868e-6
0.092, 4.886e-6
0.093, 4.896e-6
0.094, 4.907e-6
0.095, 4.923e-6
0.096, 4.932e-6
0.097, 4.952e-6
0.098, 4.960e-6
0.099, 4.971e-6
0.100, 4.989e-6
0.101, 4.998e-6
0.102, 5.015e-6
0.103, 5.025e-6
0.104, 5.033e-6
0.105, 5.052e-6
0.106, 5.057e-6
0.107, 5.074e-6
0.108, 5.089e-6
0.109, 5.101e-6
0.110, 5.115e-6
0.111, 5.123e-6
0.112, 5.140e-6
0.113, 5.151e-6
0.114, 5.162e-6
0.115, 5.169e-6
0.116, 5.182e-6
0.117, 5.202e-6
0.118, 5.210e-6
0.119, 5.221e-6
0.120, 5.236e-6
0.121, 5.244e-6
0.122, 5.258e-6
0.123, 5.267e-6
0.124, 5.280e-6
0.125, 5.295e-6
0.126, 5.303e-6
0.127, 5.320e-6
0.128, 5.337e-6
0.129, 5.344e-6
0.130, 5.359e-6
0.131, 5.363e-6
0.132, 5.379e-6
0.133, 5.389e-6
0.134, 5.398e-6
0.135, 5.415e-6
0.136, 5.418e-6
0.137, 5.439e-6
0.138, 5.447e-6
0.139, 5.455e-6
0.140, 5.471e-6
0.141, 5.472e-6
0.142, 5.490e-6
0.143, 5.498e-6
0.144, 5.509e-6
0.145, 5.522e-6
0.146, 5.528e-6
0.147, 5.544e-6
0.148, 5.554e-6
0.149, 5.566e-6
0.150, 5.579e-6
0.151, 5.585e-6
0.152, 5.601e-6
0.153, 5.608e-6
0.154, 5.618e-6
0.155, 5.630e-6
0.156, 5.639e-6
0.157, 5.655e-6
0.158, 5.660e-6
0.159, 5.669e-6
0.160, 5.684e-6
0.161, 5.688e-6
0.162, 5.704e-6
0.163, 5.710e-6
0.164, 5.723e-6
0.165, 5.735e-6
0.166, 5.733e-6
0.167, 5.748e-6
0.168, 5.757e-6
0.169, 5.765e-6
0.170, 5.778e-6
0.171, 5.781e-6
0.172, 5.800e-6
0.173, 5.805e-6
0.174, 5.813e-6
0.175, 5.827e-6
0.176, 5.828e-6
0.177, 5.847e-6
0.178, 5.853e-6
0.179, 5.866e-6
0.180, 5.878e-6
0.181, 5.880e-6
0.182, 5.891e-6
0.183, 5.899e-6
0.184, 5.910e-6
0.185, 5.921e-6
0.186, 5.923e-6
0.187, 5.937e-6
0.188, 5.946e-6
0.189, 5.956e-6
0.190, 5.965e-6
0.191, 5.969e-6
0.192, 5.974e-6
0.193, 5.987e-6
0.194, 5.996e-6
0.195, 6.006e-6
0.196, 6.012e-6
0.197, 6.028e-6
0.198, 6.032e-6
0.199, 6.041e-6
0.200, 6.055e-6
0.201, 6.062e-6
0.202, 6.075e-6
0.203, 6.079e-6
0.204, 6.089e-6
0.205, 6.089e-6
0.206, 6.102e-6
0.207, 6.117e-6
0.208, 6.123e-6
0.209, 6.135e-6
0.210, 6.150e-6
0.211, 6.149e-6
0.212, 6.165e-6
0.213, 6.177e-6
0.214, 6.187e-6
0.215, 6.198e-6
0.216, 6.204e-6
0.217, 6.218e-6
0.218, 6.227e-6
0.219, 6.236e-6
0.220, 6.252e-6
0.221, 6.258e-6
0.222, 6.275e-6
0.223, 6.285e-6
0.224, 6.298e-6
0.225, 6.314e-6
0.226, 6.320e-6
0.227, 6.339e-6
0.228, 6.349e-6
0.229, 6.363e-6
0.230, 6.384e-6
0.231, 6.394e-6
0.232, 6.412e-6
0.233, 6.425e-6
0.234, 6.440e-6
0.235, 6.454e-6
0.236, 6.465e-6
0.237, 6.487e-6
0.238, 6.496e-6
0.239, 6.516e-6
0.240, 6.536e-6
0.241, 6.550e-6
0.242, 6.577e-6
0.243, 6.582e-6
0.244, 6.608e-6
0.245, 6.631e-6
0.246, 6.645e-6
0.247, 6.673e-6
0.248, 6.689e-6
0.249, 6.715e-6
0.250, 6.735e-6
0.251, 6.750e-6
0.252, 6.790e-6
0.253, 6.804e-6
0.254, 6.834e-6
0.255, 6.859e-6
0.256, 6.877e-6
0.257, 6.916e-6
0.258, 6.937e-6
0.259, 6.967e-6
0.260, 6.998e-6
0.261, 7.026e-6
0.262, 7.064e-6
0.263, 7.090e-6
0.264, 7.130e-6
0.265, 7.166e-6
0.266, 7.195e-6
0.267, 7.235e-6
0.268, 7.268e-6
0.269, 7.302e-6
0.270, 7.346e-6
0.271, 7.383e-6
0.272, 7.431e-6
0.273, 7.468e-6
0.274, 7.522e-6
0.275, 7.564e-6
0.276, 7.613e-6
0.277, 7.667e-6
0.278, 7.712e-6
0.279, 7.774e-6
0.280, 7.827e-6
0.281, 7.887e-6
0.282, 7.953e-6
0.283, 8.000e-6
0.284, 8.072e-6
0.285, 8.127e-6
0.286, 8.192e-6
0.287, 8.268e-6
0.288, 8.322e-6
0.289, 8.405e-6
0.290, 8.470e-6
0.291, 8.547e-6
0.292, 8.632e-6
0.293, 8.704e-6
0.294, 8.784e-6
0.295, 8.865e-6
0.296, 8.952e-6
0.297, 9.060e-6
0.298, 9.142e-6
0.299, 9.244e-6
0.300, 9.340e-6
0.301, 9.439e-6
0.302, 9.560e-6
0.303, 9.657e-6
0.304, 9.784e-6
0.305, 9.898e-6
0.306, 1.002e-5
0.307, 1.016e-5
0.308, 1.028e-5
0.309, 1.043e-5
0.310, 1.055e-5
0.311, 1.069e-5
0.312, 1.085e-5
0.313, 1.099e-5
0.314, 1.116e-5
0.315, 1.130e-5
0.316, 1.148e-5
0.317, 1.166e-5
0.318, 1.181e-5
0.319, 1.202e-5
0.320, 1.215e-5
0.321, 1.237e-5
0.322, 1.260e-5
0.323, 1.279e-5
0.324, 1.304e-5
0.325, 1.325e-5
0.326, 1.349e-5
0.327, 1.373e-5
0.328, 1.394e-5
0.329, 1.424e-5
0.330, 1.449e-5
0.331, 1.476e-5
0.332, 1.507e-5
0.333, 1.540e-5
0.334, 1.571e-5
0.335, 1.599e-5
0.336, 1.631e-5
0.337, 1.668e-5
0.338, 1.699e-5
0.339, 1.736e-5
0.340, 1.773e-5
0.341, 1.812e-5
0.342, 1.853e-5
0.343, 1.889e-5
0.344, 1.937e-5
0.345, 1.974e-5
0.346, 2.019e-5
0.347, 2.068e-5
0.348, 2.114e-5
0.349, 2.170e-5
0.350, 2.215e-5
0.351, 2.272e-5
0.352, 2.327e-5
0.353, 2.381e-5
0.354, 2.445e-5
0.355, 2.496e-5
0.356, 2.565e-5
0.357, 2.631e-5
0.358, 2.684e-5
0.359, 2.764e-5
0.360, 2.824e-5
0.361, 2.907e-5
0.362, 2.980e-5
0.363, 3.044e-5
0.364, 3.137e-5
0.365, 3.208e-5
0.366, 3.300e-5
0.367, 3.384e-5
0.368, 3.461e-5
0.369, 3.569e-5
0.370, 3.646e-5
0.371, 3.731e-5
0.372, 3.835e-5
0.373, 3.929e-5
0.374, 4.048e-5
0.375, 4.139e-5
0.376, 4.248e-5
0.377, 4.360e-5
0.378, 4.459e-5
0.379, 4.583e-5
0.380, 4.683e-5
0.381, 4.817e-5
0.382, 4.935e-5
0.383, 5.043e-5
0.384, 5.213e-5
0.385, 5.319e-5
0.386, 5.453e-5
0.387, 5.571e-5
0.388, 5.691e-5
0.389, 5.847e-5
0.390, 5.958e-5
0.391, 6.106e-5
0.392, 6.239e-5
0.393, 6.368e-5
0.394, 6.533e-5
0.395, 6.642e-5
0.396, 6.801e-5
0.397, 6.900e-5
0.398, 7.057e-5
0.399, 7.220e-5
0.400, 7.332e-5
0.401, 7.508e-5
0.402, 7.645e-5
0.403, 7.765e-5
0.404, 7.930e-5
0.405, 8.045e-5
0.406, 8.214e-5
0.407, 8.345e-5
0.408, 8.468e-5
0.409, 8.597e-5
0.410, 8.585e-5
0.411, 8.825e-5
0.412, 8.954e-5
0.413, 9.078e-5
0.414, 9.238e-5
0.415, 9.331e-5
0.416, 9.479e-5
0.417, 9.590e-5
0.418, 9.702e-5
0.419, 9.834e-5
0.420, 9.912e-5
0.421, 1.004e-4
0.422, 1.012e-4
0.423, 1.019e-4
0.424, 1.033e-4
0.425, 1.040e-4
0.426, 1.051e-4
0.427, 1.057e-4
0.428, 1.065e-4
0.429, 1.074e-4
0.430, 1.079e-4
0.431, 1.088e-4
0.432, 1.091e-4
0.433, 1.099e-4
0.434, 1.106e-4
0.435, 1.111e-4
0.436, 1.117e-4
0.437, 1.119e-4
0.438, 1.122e-4
0.439, 1.127e-4
0.440, 1.127e-4
0.441, 1.132e-4
0.442, 1.133e-4
0.443, 1.133e-4
0.444, 1.137e-4
0.445, 1.135e-4
0.446, 1.138e-4
0.447, 1.138e-4
0.448, 1.133e-4
0.449, 1.137e-4
0.450, 1.134e-4
0.451, 1.136e-4
0.452, 1.134e-4
0.453, 1.131e-4
0.454, 1.132e-4
0.455, 1.127e-4
0.456, 1.126e-4
0.457, 1.124e-4
0.458, 1.120e-4
0.459, 1.118e-4
0.460, 1.114e-4
0.461, 1.111e-4
0.462, 1.108e-4
0.463, 1.104e-4
0.464, 1.100e-4
0.465, 1.096e-4
0.466, 1.092e-4
0.467, 1.087e-4
0.468, 1.083e-4
0.469, 1.079e-4
0.470, 1.074e-4
0.471, 1.070e-4
0.472, 1.064e-4
0.473, 1.059e-4
0.474, 1.054e-4
0.475, 1.049e-4
0.476, 1.044e-4
0.477, 1.039e-4
0.478, 1.034e-4
0.479, 1.029e-4
0.480, 1.023e-4
0.481, 1.019e-4
0.482, 1.014e-4
0.483, 1.007e-4
0.484, 1.003e-4
0.485, 9.968e-5
0.486, 9.929e-5
0.487, 9.872e-5
0.488, 9.810e-5
0.489, 9.765e-5
0.490, 9.706e-5
0.491, 9.653e-5
0.492, 9.603e-5
0.493, 9.547e-5
0.494, 9.499e-5
0.495, 9.444e-5
0.496, 9.393e-5
0.497, 9.344e-5
0.498, 9.289e-5
0.499, 9.239e-5
0.500, 9.187e-5
0.501, 9.139e-5
0.502, 9.091e-5
0.503, 9.041e-5
0.504, 8.994e-5
0.505, 8.946e-5
0.506, 8.899e-5
0.507, 8.851e-5
0.508, 8.803e-5
0.509, 8.761e-5
0.510, 8.712e-5
0.511, 8.668e-5
0.512, 8.628e-5
0.513, 8.580e-5
0.514, 8.539e-5
0.515, 8.490e-5
0.516, 8.451e-5
0.517, 8.408e-5
0.518, 8.365e-5
0.519, 8.325e-5
0.520, 8.282e-5
0.521, 8.244e-5
0.522, 8.204e-5
0.523, 8.162e-5
0.524, 8.126e-5
0.525, 8.082e-5
0.526, 8.047e-5
0.527, 8.010e-5
0.528, 7.971e-5
0.529, 7.937e-5
0.530, 7.899e-5
0.531, 7.864e-5
0.532, 7.829e-5
0.533, 7.793e-5
0.534, 7.760e-5
0.535, 7.724e-5
0.536, 7.691e-5
0.537, 7.661e-5
0.538, 7.627e-5
0.539, 7.595e-5
0.540, 7.562e-5
0.541, 7.531e-5
0.542, 7.500e-5
0.543, 7.468e-5
0.544, 7.438e-5
0.545, 7.408e-5
0.546, 7.379e-5
0.547, 7.350e-5
0.548, 7.320e-5
0.549, 7.293e-5
0.550, 7.262e-5
0.551, 7.236e-5
0.552, 7.210e-5
0.553, 7.181e-5
0.554, 7.156e-5
0.555, 7.128e-5
0.556, 7.103e-5
0.557, 7.078e-5
0.558, 7.051e-5
0.559, 7.026e-5
0.560, 7.000e-5
0.561, 6.976e-5
0.562, 6.951e-5
0.563, 6.926e-5
0.564, 6.903e-5
0.565, 6.879e-5
0.566, 6.856e-5
0.567, 6.833e-5
0.568, 6.810e-5
0.569, 6.789e-5
0.570, 6.766e-5
0.571, 6.744e-5
0.572, 6.723e-5
0.573, 6.701e-5
0.574, 6.680e-5
0.575, 6.659e-5
0.576, 6.637e-5
0.577, 6.618e-5
0.578, 6.596e-5
0.579, 6.576e-5
0.580, 6.556e-5
0.581, 6.537e-5
0.582, 6.518e-5
0.583, 6.498e-5
0.584, 6.479e-5
0.585, 6.460e-5
0.586, 6.442e-5
0.587, 6.424e-5
0.588, 6.405e-5
0.589, 6.389e-5
0.590, 6.370e-5
0.591, 6.352e-5
0.592, 6.335e-5
0.593, 6.317e-5
0.594, 6.301e-5
0.595, 6.283e-5
0.596, 6.266e-5
0.597, 6.249e-5
0.598, 6.231e-5
0.599, 6.216e-5
0.600, 6.199e-5
0.601, 6.182e-5
0.602, 6.167e-5
0.603, 6.150e-5
0.604, 6.135e-5
0.605, 6.120e-5
0.606, 6.104e-5
0.607, 6.090e-5
0.608, 6.074e-5
0.609, 6.060e-5
0.610, 6.045e-5
0.611, 6.030e-5
0.612, 6.017e-5
0.613, 6.001e-5
0.614, 5.985e-5
0.615, 5.972e-5
0.616, 5.958e-5
0.617, 5.945e-5
0.618, 5.930e-5
0.619, 5.917e-5
0.620, 5.903e-5
0.621, 5.890e-5
0.622, 5.877e-5
0.623, 5.864e-5
0.624, 5.852e-5
0.625, 5.838e-5
0.626, 5.825e-5
0.627, 5.812e-5
0.628, 5.799e-5
0.629, 5.788e-5
0.630, 5.775e-5
0.631, 5.762e-5
0.632, 5.751e-5
0.633, 5.738e-5
0.634, 5.727e-5
0.635, 5.714e-5
0.636, 5.702e-5
0.637, 5.691e-5
0.638, 5.678e-5
0.639, 5.668e-5
0.640, 5.657e-5
0.641, 5.645e-5
0.642, 5.635e-5
0.643, 5.622e-5
0.644, 5.612e-5
0.645, 5.601e-5
0.646, 5.589e-5
0.647, 5.579e-5
0.648, 5.567e-5
0.649, 5.558e-5
0.650, 5.547e-5
0.651, 5.536e-5
0.652, 5.526e-5
0.653, 5.514e-5
0.654, 5.505e-5
0.655, 5.494e-5
0.656, 5.484e-5
0.657, 5.474e-5
0.658, 5.464e-5
0.659, 5.454e-5
0.660, 5.444e-5
0.661, 5.434e-5
0.662, 5.424e-5
0.663, 5.414e-5
0.664, 5.405e-5
0.665, 5.396e-5
0.666, 5.386e-5
0.667, 5.377e-5
0.668, 5.367e-5
0.669, 5.359e-5
0.670, 5.349e-5
0.671, 5.340e-5
0.672, 5.331e-5
0.673, 5.321e-5
0.674, 5.313e-5
0.675, 5.304e-5
0.676, 5.295e-5
0.677, 5.287e-5
0.678, 5.276e-5
0.679, 5.269e-5
0.680, 5.261e-5
0.681, 5.252e-5
0.682, 5.245e-5
0.683, 5.234e-5
0.684, 5.228e-5
0.685, 5.219e-5
0.686, 5.211e-5
0.687, 5.203e-5
0.688, 5.194e-5
0.689, 5.187e-5
0.690, 5.178e-5
0.691, 5.171e-5
0.692, 5.164e-5
0.693, 5.155e-5
0.694, 5.148e-5
0.695, 5.139e-5
0.696, 5.131e-5
0.697, 5.124e-5
0.698, 5.116e-5
0.699, 5.109e-5
0.700, 5.100e-5
0.701, 5.094e-5
0.702, 5.086e-5
0.703, 5.079e-5
0.704, 5.071e-5
0.705, 5.065e-5
0.706, 5.056e-5
0.707, 5.050e-5
0.708, 5.043e-5
0.709, 5.036e-5
0.710, 5.029e-5
0.711, 5.022e-5
0.712, 5.015e-5
0.713, 5.007e-5
0.714, 5.001e-5
0.715, 4.994e-5
0.716, 4.987e-5
0.717, 4.982e-5
0.718, 4.975e-5
0.719, 4.969e-5
0.720, 4.962e-5
0.721, 4.956e-5
0.722, 4.950e-5
0.723, 4.942e-5
0.724, 4.937e-5
0.725, 4.930e-5
0.726, 4.924e-5
0.727, 4.918e-5
0.728, 4.911e-5
0.729, 4.906e-5
0.730, 4.900e-5
0.731, 4.893e-5
0.732, 4.888e-5
0.733, 4.882e-5
0.734, 4.877e-5
0.735, 4.871e-5
0.736, 4.866e-5
0.737, 4.861e-5
0.738, 4.855e-5
0.739, 4.850e-5
0.740, 4.844e-5
0.741, 4.839e-5
0.742, 4.835e-5
0.743, 4.828e-5
0.744, 4.824e-5
0.745, 4.818e-5
0.746, 4.813e-5
0.747, 4.808e-5
0.748, 4.802e-5
0.749, 4.799e-5
0.750, 4.793e-5
0.751, 4.789e-5
0.752, 4.784e-5
0.753, 4.779e-5
0.754, 4.775e-5
0.755, 4.769e-5
0.756, 4.765e-5
0.757, 4.761e-5
0.758, 4.755e-5
0.759, 4.752e-5
0.760, 4.747e-5
0.761, 4.743e-5
0.762, 4.739e-5
0.763, 4.734e-5
0.764, 4.731e-5
0.765, 4.726e-5
0.766, 4.722e-5
0.767, 4.718e-5
0.768, 4.713e-5
0.769, 4.710e-5
0.770, 4.705e-5
0.771, 4.701e-5
0.772, 4.698e-5
0.773, 4.693e-5
0.774, 4.690e-5
0.775, 4.686e-5
0.776, 4.683e-5
0.777, 4.680e-5
0.778, 4.675e-5
0.779, 4.673e-5
0.780, 4.668e-5
0.781, 4.664e-5
0.782, 4.662e-5
0.783, 4.658e-5
0.784, 4.655e-5
0.785, 4.651e-5
0.786, 4.648e-5
0.787, 4.644e-5
0.788, 4.641e-5
0.789, 4.639e-5
0.790, 4.635e-5
0.791, 4.632e-5
0.792, 4.630e-5
0.793, 4.628e-5
0.794, 4.625e-5
0.795, 4.621e-5
0.796, 4.619e-5
0.797, 4.616e-5
0.798, 4.612e-5
0.799, 4.610e-5
0.800, 4.606e-5
0.801, 4.604e-5
0.802, 4.603e-5
0.803, 4.598e-5
0.804, 4.597e-5
0.805, 4.594e-5
0.806, 4.591e-5
0.807, 4.590e-5
0.808, 4.587e-5
0.809, 4.586e-5
0.810, 4.582e-5
0.811, 4.580e-5
0.812, 4.578e-5
0.813, 4.575e-5
0.814, 4.573e-5
0.815, 4.570e-5
0.816, 4.568e-5
0.817, 4.567e-5
0.818, 4.564e-5
0.819, 4.560e-5
0.820, 4.560e-5
0.821, 4.559e-5
0.822, 4.557e-5
0.823, 4.555e-5
0.824, 4.554e-5
0.825, 4.551e-5
0.826, 4.549e-5
0.827, 4.547e-5
0.828, 4.545e-5
0.829, 4.545e-5
0.830, 4.542e-5
0.831, 4.541e-5
0.832, 4.538e-5
0.833, 4.537e-5
0.834, 4.537e-5
0.835, 4.535e-5
0.836, 4.535e-5
0.837, 4.533e-5
0.838, 4.531e-5
0.839, 4.531e-5
0.840, 4.528e-5
0.841, 4.527e-5
0.842, 4.526e-5
0.843, 4.523e-5
0.844, 4.523e-5
0.845, 4.522e-5
0.846, 4.521e-5
0.847, 4.520e-5
0.848, 4.518e-5
0.849, 4.519e-5
0.850, 4.518e-5
0.851, 4.516e-5
0.852, 4.516e-5
0.853, 4.514e-5
0.854, 4.514e-5
0.855, 4.512e-5
0.856, 4.511e-5
0.857, 4.510e-5
0.858, 4.508e-5
0.859, 4.508e-5
0.860, 4.507e-5
0.861, 4.507e-5
0.862, 4.507e-5
0.863, 4.505e-5
0.864, 4.507e-5
0.865, 4.505e-5
0.866, 4.505e-5
0.867, 4.504e-5
0.868, 4.503e-5
0.869, 4.503e-5
0.870, 4.500e-5
0.871, 4.501e-5
0.872, 4.500e-5
0.873, 4.499e-5
0.874, 4.500e-5
0.875, 4.499e-5
0.876, 4.500e-5
0.877, 4.500e-5
0.878, 4.498e-5
0.879, 4.499e-5
0.880, 4.497e-5
0.881, 4.498e-5
0.882, 4.498e-5
0.883, 4.495e-5
0.884, 4.497e-5
0.885, 4.496e-5
0.886, 4.496e-5
0.887, 4.496e-5
0.888, 4.495e-5
0.889, 4.497e-5
0.890, 4.495e-5
0.891, 4.496e-5
0.892, 4.497e-5
0.893, 4.496e-5
0.894, 4.497e-5
0.895, 4.495e-5
0.896, 4.498e-5
0.897, 4.496e-5
0.898, 4.496e-5
0.899, 4.496e-5
0.900, 4.436e-5
0.899, 4.392e-5
0.898, 4.370e-5
0.897, 4.349e-5
0.896, 4.332e-5
0.895, 4.318e-5
0.894, 4.305e-5
0.893, 4.292e-5
0.892, 4.279e-5
0.891, 4.269e-5
0.890, 4.258e-5
0.889, 4.247e-5
0.888, 4.237e-5
0.887, 4.226e-5
0.886, 4.218e-5
0.885, 4.208e-5
0.884, 4.201e-5
0.883, 4.193e-5
0.882, 4.184e-5
0.881, 4.177e-5
0.880, 4.169e-5
0.879, 4.162e-5
0.878, 4.155e-5
0.877, 4.148e-5
0.876, 4.142e-5
0.875, 4.134e-5
0.874, 4.128e-5
0.873, 4.122e-5
0.872, 4.114e-5
0.871, 4.110e-5
0.870, 4.103e-5
0.869, 4.098e-5
0.868, 4.092e-5
0.867, 4.087e-5
0.866, 4.083e-5
0.865, 4.077e-5
0.864, 4.072e-5
0.863, 4.068e-5
0.862, 4.062e-5
0.861, 4.058e-5
0.860, 4.052e-5
0.859, 4.048e-5
0.858, 4.045e-5
0.857, 4.038e-5
0.856, 4.034e-5
0.855, 4.030e-5
0.854, 4.026e-5
0.853, 4.022e-5
0.852, 4.018e-5
0.851, 4.015e-5
0.850, 4.010e-5
0.849, 4.007e-5
0.848, 4.003e-5
0.847, 3.998e-5
0.846, 3.996e-5
0.845, 3.989e-5
0.844, 3.986e-5
0.843, 3.983e-5
0.842, 3.979e-5
0.841, 3.976e-5
0.840, 3.972e-5
0.839, 3.970e-5
0.838, 3.967e-5
0.837, 3.963e-5
0.836, 3.961e-5
0.835, 3.957e-5
0.834, 3.954e-5
0.833, 3.951e-5
0.832, 3.948e-5
0.831, 3.945e-5
0.830, 3.940e-5
0.829, 3.938e-5
0.828, 3.934e-5
0.827, 3.931e-5
0.826, 3.929e-5
0.825, 3.925e-5
0.824, 3.923e-5
0.823, 3.921e-5
0.822, 3.917e-5
0.821, 3.915e-5
0.820, 3.913e-5
0.819, 3.911e-5
0.818, 3.908e-5
0.817, 3.903e-5
0.816, 3.901e-5
0.815, 3.897e-5
0.814, 3.895e-5
0.813, 3.891e-5
0.812, 3.888e-5
0.811, 3.886e-5
0.810, 3.883e-5
0.809, 3.880e-5
0.808, 3.878e-5
0.807, 3.876e-5
0.806, 3.873e-5
0.805, 3.869e-5
0.804, 3.867e-5
0.803, 3.864e-5
0.802, 3.861e-5
0.801, 3.859e-5
0.800, 3.855e-5
0.799, 3.853e-5
0.798, 3.851e-5
0.797, 3.848e-5
0.796, 3.845e-5
0.795, 3.841e-5
0.794, 3.839e-5
0.793, 3.837e-5
0.792, 3.834e-5
0.791, 3.832e-5
0.790, 3.828e-5
0.789, 3.826e-5
0.788, 3.823e-5
0.787, 3.820e-5
0.786, 3.818e-5
0.785, 3.814e-5
0.784, 3.812e-5
0.783, 3.810e-5
0.782, 3.806e-5
0.781, 3.806e-5
0.780, 3.801e-5
0.779, 3.799e-5
0.778, 3.796e-5
0.777, 3.793e-5
0.776, 3.791e-5
0.775, 3.788e-5
0.774, 3.786e-5
0.773, 3.783e-5
0.772, 3.779e-5
0.771, 3.778e-5
0.770, 3.774e-5
0.769, 3.771e-5
0.768, 3.769e-5
0.767, 3.765e-5
0.766, 3.763e-5
0.765, 3.760e-5
0.764, 3.757e-5
0.763, 3.755e-5
0.762, 3.752e-5
0.761, 3.750e-5
0.760, 3.746e-5
0.759, 3.744e-5
0.758, 3.741e-5
0.757, 3.738e-5
0.756, 3.736e-5
0.755, 3.733e-5
0.754, 3.730e-5
0.753, 3.727e-5
0.752, 3.723e-5
0.751, 3.722e-5
0.750, 3.718e-5
0.749, 3.716e-5
0.748, 3.714e-5
0.747, 3.710e-5
0.746, 3.709e-5
0.745, 3.705e-5
0.744, 3.703e-5
0.743, 3.700e-5
0.742, 3.698e-5
0.741, 3.696e-5
0.740, 3.692e-5
0.739, 3.690e-5
0.738, 3.688e-5
0.737, 3.685e-5
0.736, 3.683e-5
0.735, 3.680e-5
0.734, 3.678e-5
0.733, 3.676e-5
0.732, 3.673e-5
0.731, 3.671e-5
0.730, 3.669e-5
0.729, 3.667e-5
0.728, 3.665e-5
0.727, 3.661e-5
0.726, 3.660e-5
0.725, 3.657e-5
0.724, 3.655e-5
0.723, 3.653e-5
0.722, 3.650e-5
0.721, 3.649e-5
0.720, 3.646e-5
0.719, 3.644e-5
0.718, 3.642e-5
0.717, 3.640e-5
0.716, 3.639e-5
0.715, 3.636e-5
0.714, 3.635e-5
0.713, 3.633e-5
0.712, 3.630e-5
0.711, 3.629e-5
0.710, 3.626e-5
0.709, 3.625e-5
0.708, 3.623e-5
0.707, 3.622e-5
0.706, 3.621e-5
0.705, 3.619e-5
0.704, 3.619e-5
0.703, 3.617e-5
0.702, 3.615e-5
0.701, 3.615e-5
0.700, 3.612e-5
0.699, 3.611e-5
0.698, 3.610e-5
0.697, 3.608e-5
0.696, 3.607e-5
0.695, 3.605e-5
0.694, 3.606e-5
0.693, 3.604e-5
0.692, 3.602e-5
0.691, 3.602e-5
0.690, 3.601e-5
0.689, 3.601e-5
0.688, 3.599e-5
0.687, 3.599e-5
0.686, 3.598e-5
0.685, 3.596e-5
0.684, 3.596e-5
0.683, 3.595e-5
0.682, 3.594e-5
0.681, 3.594e-5
0.680, 3.593e-5
0.679, 3.593e-5
0.678, 3.592e-5
0.677, 3.591e-5
0.676, 3.591e-5
0.675, 3.590e-5
0.674, 3.590e-5
0.673, 3.589e-5
0.672, 3.588e-5
0.671, 3.589e-5
0.670, 3.587e-5
0.669, 3.587e-5
0.668, 3.586e-5
0.667, 3.585e-5
0.666, 3.586e-5
0.665, 3.585e-5
0.664, 3.585e-5
0.663, 3.585e-5
0.662, 3.584e-5
0.661, 3.584e-5
0.660, 3.583e-5
0.659, 3.583e-5
0.658, 3.582e-5
0.657, 3.582e-5
0.656, 3.582e-5
0.655, 3.580e-5
0.654, 3.581e-5
0.653, 3.581e-5
0.652, 3.579e-5
0.651, 3.580e-5
0.650, 3.579e-5
0.649, 3.579e-5
0.648, 3.578e-5
0.647, 3.578e-5
0.646, 3.578e-5
0.645, 3.577e-5
0.644, 3.577e-5
0.643, 3.576e-5
0.642, 3.575e-5
0.641, 3.575e-5
0.640, 3.573e-5
0.639, 3.574e-5
0.638, 3.573e-5
0.637, 3.573e-5
0.636, 3.573e-5
0.635, 3.572e-5
0.634, 3.573e-5
0.633, 3.572e-5
0.632, 3.571e-5
0.631, 3.572e-5
0.630, 3.570e-5
0.629, 3.571e-5
0.628, 3.570e-5
0.627, 3.569e-5
0.626, 3.570e-5
0.625, 3.568e-5
0.624, 3.568e-5
0.623, 3.568e-5
0.622, 3.566e-5
0.621, 3.567e-5
0.620, 3.565e-5
0.619, 3.566e-5
0.618, 3.565e-5
0.617, 3.564e-5
0.616, 3.564e-5
0.615, 3.564e-5
0.614, 3.563e-5
0.613, 3.562e-5
0.612, 3.561e-5
0.611, 3.561e-5
0.610, 3.560e-5
0.609, 3.560e-5
0.608, 3.559e-5
0.607, 3.557e-5
0.606, 3.557e-5
0.605, 3.556e-5
0.604, 3.555e-5
0.603, 3.554e-5
0.602, 3.554e-5
0.601, 3.553e-5
0.600, 3.550e-5
0.599, 3.549e-5
0.598, 3.548e-5
0.597, 3.547e-5
0.596, 3.546e-5
0.595, 3.544e-5
0.594, 3.544e-5
0.593, 3.542e-5
0.592, 3.541e-5
0.591, 3.540e-5
0.590, 3.538e-5
0.589, 3.536e-5
0.588, 3.535e-5
0.587, 3.533e-5
0.586, 3.532e-5
0.585, 3.529e-5
0.584, 3.527e-5
0.583, 3.525e-5
0.582, 3.523e-5
0.581, 3.521e-5
0.580, 3.518e-5
0.579, 3.517e-5
0.578, 3.514e-5
0.577, 3.511e-5
0.576, 3.511e-5
0.575, 3.507e-5
0.574, 3.505e-5
0.573, 3.501e-5
0.572, 3.498e-5
0.571, 3.496e-5
0.570, 3.493e-5
0.569, 3.490e-5
0.568, 3.486e-5
0.567, 3.483e-5
0.566, 3.480e-5
0.565, 3.475e-5
0.564, 3.472e-5
0.563, 3.469e-5
0.562, 3.465e-5
0.561, 3.461e-5
0.560, 3.456e-5
0.559, 3.452e-5
0.558, 3.447e-5
0.557, 3.444e-5
0.556, 3.440e-5
0.555, 3.433e-5
0.554, 3.430e-5
0.553, 3.424e-5
0.552, 3.419e-5
0.551, 3.415e-5
0.550, 3.408e-5
0.549, 3.404e-5
0.548, 3.396e-5
0.547, 3.390e-5
0.546, 3.384e-5
0.545, 3.376e-5
0.544, 3.371e-5
0.543, 3.362e-5
0.542, 3.355e-5
0.541, 3.348e-5
0.540, 3.339e-5
0.539, 3.331e-5
0.538, 3.320e-5
0.537, 3.312e-5
0.536, 3.303e-5
0.535, 3.292e-5
0.534, 3.284e-5
0.533, 3.272e-5
0.532, 3.262e-5
0.531, 3.251e-5
0.530, 3.238e-5
0.529, 3.227e-5
0.528, 3.213e-5
0.527, 3.200e-5
0.526, 3.187e-5
0.525, 3.175e-5
0.524, 3.159e-5
0.523, 3.142e-5
0.522, 3.128e-5
0.521, 3.110e-5
0.520, 3.091e-5
0.519, 3.076e-5
0.518, 3.056e-5
0.517, 3.038e-5
0.516, 3.016e-5
0.515, 2.994e-5
0.514, 2.977e-5
0.513, 2.951e-5
0.512, 2.925e-5
0.511, 2.904e-5
0.510, 2.878e-5
0.509, 2.856e-5
0.508, 2.824e-5
0.507, 2.801e-5
0.506, 2.772e-5
0.505, 2.741e-5
0.504, 2.714e-5
0.503, 2.678e-5
0.502, 2.649e-5
0.501, 2.613e-5
0.500, 2.577e-5
0.499, 2.548e-5
0.498, 2.505e-5
0.497, 2.470e-5
0.496, 2.427e-5
0.495, 2.382e-5
0.494, 2.344e-5
0.493, 2.295e-5
0.492, 2.252e-5
0.491, 2.201e-5
0.490, 2.154e-5
0.489, 2.107e-5
0.488, 2.050e-5
0.487, 1.992e-5
0.486, 1.932e-5
0.485, 1.878e-5
0.484, 1.819e-5
0.483, 1.758e-5
0.482, 1.702e-5
0.481, 1.632e-5
0.480, 1.568e-5
0.479, 1.498e-5
0.478, 1.420e-5
0.477, 1.359e-5
0.476, 1.276e-5
0.475, 1.196e-5
0.474, 1.142e-5
0.473, 1.043e-5
0.472, 9.702e-6
0.471, 8.752e-6
0.470, 7.882e-6
0.469, 7.037e-6
0.468, 5.934e-6
0.467, 5.152e-6
0.466, 4.107e-6
0.465, 3.071e-6
0.464, 2.150e-6
0.463, 9.401e-7
0.462, 2.107e-8
0.461, -1.071e-6
0.460, -2.236e-6
0.459, -3.316e-6
0.458, -4.607e-6
0.457, -5.618e-6
0.456, -6.913e-6
0.455, -8.196e-6
0.454, -9.315e-6
0.453, -1.080e-5
0.452, -1.189e-5
0.451, -1.332e-5
0.450, -1.459e-5
0.449, -1.586e-5
0.448, -1.715e-5
0.447, -1.854e-5
0.446, -2.006e-5
0.445, -2.135e-5
0.444, -2.282e-5
0.443, -2.436e-5
0.442, -2.562e-5
0.441, -2.731e-5
0.440, -2.859e-5
0.439, -3.003e-5
0.438, -3.171e-5
0.437, -3.284e-5
0.436, -3.462e-5
0.435, -3.650e-5
0.434, -3.754e-5
0.433, -3.920e-5
0.432, -4.027e-5
0.431, -4.207e-5
0.430, -4.331e-5
0.429, -4.455e-5
0.428, -4.632e-5
0.427, -4.733e-5
0.426, -4.903e-5
0.425, -5.019e-5
0.424, -5.126e-5
0.423, -5.290e-5
0.422, -5.368e-5
0.421, -5.527e-5
0.420, -5.651e-5
0.419, -5.753e-5
0.418, -5.901e-5
0.417, -5.976e-5
0.416, -6.102e-5
0.415, -6.214e-5
0.414, -6.306e-5
0.413, -6.418e-5
0.412, -6.489e-5
0.411, -6.595e-5
0.410, -6.567e-5
0.409, -6.661e-5
0.408, -6.789e-5
0.407, -6.846e-5
0.406, -6.948e-5
0.405, -6.988e-5
0.404, -7.061e-5
0.403, -7.139e-5
0.402, -7.173e-5
0.401, -7.244e-5
0.400, -7.279e-5
0.399, -7.320e-5
0.398, -7.371e-5
0.397, -7.350e-5
0.396, -7.406e-5
0.395, -7.429e-5
0.394, -7.442e-5
0.393, -7.480e-5
0.392, -7.467e-5
0.391, -7.504e-5
0.390, -7.497e-5
0.389, -7.491e-5
0.388, -7.511e-5
0.387, -7.485e-5
0.386, -7.497e-5
0.385, -7.485e-5
0.384, -7.491e-5
0.383, -7.477e-5
0.382, -7.437e-5
0.381, -7.422e-5
0.380, -7.394e-5
0.379, -7.364e-5
0.378, -7.341e-5
0.377, -7.300e-5
0.376, -7.278e-5
0.375, -7.242e-5
0.374, -7.200e-5
0.373, -7.175e-5
0.372, -7.119e-5
0.371, -7.075e-5
0.370, -7.039e-5
0.369, -6.995e-5
0.368, -6.953e-5
0.367, -6.903e-5
0.366, -6.863e-5
0.365, -6.807e-5
0.364, -6.769e-5
0.363, -6.719e-5
0.362, -6.659e-5
0.361, -6.620e-5
0.360, -6.562e-5
0.359, -6.509e-5
0.358, -6.466e-5
0.357, -6.406e-5
0.356, -6.363e-5
0.355, -6.308e-5
0.354, -6.249e-5
0.353, -6.204e-5
0.352, -6.141e-5
0.351, -6.097e-5
0.350, -6.043e-5
0.349, -5.984e-5
0.348, -5.939e-5
0.347, -5.880e-5
0.346, -5.826e-5
0.345, -5.774e-5
0.344, -5.721e-5
0.343, -5.675e-5
0.342, -5.619e-5
0.341, -5.571e-5
0.340, -5.519e-5
0.339, -5.466e-5
0.338, -5.420e-5
0.337, -5.368e-5
0.336, -5.319e-5
0.335, -5.272e-5
0.334, -5.221e-5
0.333, -5.181e-5
0.332, -5.128e-5
0.331, -5.082e-5
0.330, -5.034e-5
0.329, -4.986e-5
0.328, -4.944e-5
0.327, -4.895e-5
0.326, -4.852e-5
0.325, -4.806e-5
0.324, -4.762e-5
0.323, -4.721e-5
0.322, -4.674e-5
0.321, -4.633e-5
0.320, -4.587e-5
0.319, -4.546e-5
0.318, -4.509e-5
0.317, -4.466e-5
0.316, -4.428e-5
0.315, -4.389e-5
0.314, -4.347e-5
0.313, -4.312e-5
0.312, -4.271e-5
0.311, -4.235e-5
0.310, -4.198e-5
0.309, -4.160e-5
0.308, -4.126e-5
0.307, -4.091e-5
0.306, -4.055e-5
0.305, -4.021e-5
0.304, -3.985e-5
0.303, -3.953e-5
0.302, -3.918e-5
0.301, -3.884e-5
0.300, -3.853e-5
0.299, -3.820e-5
0.298, -3.789e-5
0.297, -3.757e-5
0.296, -3.726e-5
0.295, -3.695e-5
0.294, -3.665e-5
0.293, -3.636e-5
0.292, -3.607e-5
0.291, -3.579e-5
0.290, -3.550e-5
0.289, -3.522e-5
0.288, -3.496e-5
0.287, -3.468e-5
0.286, -3.442e-5
0.285, -3.415e-5
0.284, -3.388e-5
0.283, -3.363e-5
0.282, -3.338e-5
0.281, -3.313e-5
0.280, -3.288e-5
0.279, -3.263e-5
0.278, -3.240e-5
0.277, -3.214e-5
0.276, -3.192e-5
0.275, -3.169e-5
0.274, -3.145e-5
0.273, -3.122e-5
0.272, -3.100e-5
0.271, -3.078e-5
0.270, -3.057e-5
0.269, -3.033e-5
0.268, -3.013e-5
0.267, -2.992e-5
0.266, -2.971e-5
0.265, -2.951e-5
0.264, -2.931e-5
0.263, -2.912e-5
0.262, -2.892e-5
0.261, -2.872e-5
0.260, -2.854e-5
0.259, -2.834e-5
0.258, -2.815e-5
0.257, -2.797e-5
0.256, -2.779e-5
0.255, -2.761e-5
0.254, -2.742e-5
0.253, -2.725e-5
0.252, -2.708e-5
0.251, -2.690e-5
0.250, -2.674e-5
0.249, -2.656e-5
0.248, -2.640e-5
0.247, -2.624e-5
0.246, -2.607e-5
0.245, -2.592e-5
0.244, -2.575e-5
0.243, -2.560e-5
0.242, -2.544e-5
0.241, -2.529e-5
0.240, -2.515e-5
0.239, -2.499e-5
0.238, -2.485e-5
0.237, -2.470e-5
0.236, -2.455e-5
0.235, -2.442e-5
0.234, -2.427e-5
0.233, -2.413e-5
0.232, -2.399e-5
0.231, -2.386e-5
0.230, -2.373e-5
0.229, -2.359e-5
0.228, -2.346e-5
0.227, -2.332e-5
0.226, -2.319e-5
0.225, -2.307e-5
0.224, -2.293e-5
0.223, -2.281e-5
0.222, -2.268e-5
0.221, -2.256e-5
0.220, -2.244e-5
0.219, -2.232e-5
0.218, -2.220e-5
0.217, -2.208e-5
0.216, -2.196e-5
0.215, -2.185e-5
0.214, -2.174e-5
0.213, -2.162e-5
0.212, -2.151e-5
0.211, -2.140e-5
0.210, -2.130e-5
0.209, -2.118e-5
0.208, -2.108e-5
0.207, -2.097e-5
0.206, -2.086e-5
0.205, -2.075e-5
0.204, -2.065e-5
0.203, -2.055e-5
0.202, -2.045e-5
0.201, -2.035e-5
0.200, -2.025e-5
0.199, -2.015e-5
0.198, -2.006e-5
0.197, -1.996e-5
0.196, -1.986e-5
0.195, -1.977e-5
0.194, -1.967e-5
0.193, -1.959e-5
0.192, -1.949e-5
0.191, -1.940e-5
0.190, -1.931e-5
0.189, -1.922e-5
0.188, -1.913e-5
0.187, -1.905e-5
0.186, -1.895e-5
0.185, -1.887e-5
0.184, -1.878e-5
0.183, -1.870e-5
0.182, -1.861e-5
0.181, -1.853e-5
0.180, -1.845e-5
0.179, -1.837e-5
0.178, -1.829e-5
0.177, -1.820e-5
0.176, -1.812e-5
0.175, -1.804e-5
0.174, -1.796e-5
0.173, -1.789e-5
0.172, -1.781e-5
0.171, -1.773e-5
0.170, -1.766e-5
0.169, -1.758e-5
0.168, -1.751e-5
0.167, -1.743e-5
0.166, -1.736e-5
0.165, -1.729e-5
0.164, -1.721e-5
0.163, -1.715e-5
0.162, -1.707e-5
0.161, -1.701e-5
0.160, -1.694e-5
0.159, -1.687e-5
0.158, -1.680e-5
0.157, -1.673e-5
0.156, -1.667e-5
0.155, -1.660e-5
0.154, -1.653e-5
0.153, -1.647e-5
0.152, -1.641e-5
0.151, -1.634e-5
0.150, -1.628e-5
0.149, -1.621e-5
0.148, -1.615e-5
0.147, -1.609e-5
0.146, -1.603e-5
0.145, -1.597e-5
0.144, -1.591e-5
0.143, -1.585e-5
0.142, -1.579e-5
0.141, -1.572e-5
0.140, -1.567e-5
0.139, -1.561e-5
0.138, -1.555e-5
0.137, -1.549e-5
0.136, -1.544e-5
0.135, -1.539e-5
0.134, -1.533e-5
0.133, -1.527e-5
0.132, -1.522e-5
0.131, -1.517e-5
0.130, -1.512e-5
0.129, -1.506e-5
0.128, -1.502e-5
0.127, -1.497e-5
0.126, -1.491e-5
0.125, -1.486e-5
0.124, -1.481e-5
0.123, -1.476e-5
0.122, -1.471e-5
0.121, -1.466e-5
0.120, -1.462e-5
0.119, -1.456e-5
0.118, -1.452e-5
0.117, -1.447e-5
0.116, -1.442e-5
0.115, -1.437e-5
0.114, -1.432e-5
0.113, -1.428e-5
0.112, -1.424e-5
0.111, -1.419e-5
0.110, -1.415e-5
0.109, -1.410e-5
0.108, -1.406e-5
0.107, -1.401e-5
0.106, -1.397e-5
0.105, -1.394e-5
0.104, -1.388e-5
0.103, -1.385e-5
0.102, -1.380e-5
0.101, -1.376e-5
0.100, -1.373e-5
0.099, -1.368e-5
0.098, -1.365e-5
0.097, -1.361e-5
0.096, -1.357e-5
0.095, -1.353e-5
0.094, -1.349e-5
0.093, -1.346e-5
0.092, -1.342e-5
0.091, -1.338e-5
0.090, -1.334e-5
0.089, -1.330e-5
0.088, -1.327e-5
0.087, -1.323e-5
0.086, -1.319e-5
0.085, -1.317e-5
0.084, -1.313e-5
0.083, -1.310e-5
0.082, -1.306e-5
0.081, -1.302e-5
0.080, -1.300e-5
0.079, -1.296e-5
0.078, -1.293e-5
0.077, -1.290e-5
0.076, -1.287e-5
0.075, -1.284e-5
0.074, -1.280e-5
0.073, -1.278e-5
0.072, -1.275e-5
0.071, -1.271e-5
0.070, -1.269e-5
0.069, -1.265e-5
0.068, -1.263e-5
0.067, -1.260e-5
0.066, -1.257e-5
0.065, -1.255e-5
0.064, -1.251e-5
0.063, -1.250e-5
0.062, -1.246e-5
0.061, -1.244e-5
0.060, -1.241e-5
0.059, -1.239e-5
0.058, -1.237e-5
0.057, -1.234e-5
0.056, -1.232e-5
0.055, -1.230e-5
0.054, -1.227e-5
0.053, -1.225e-5
0.052, -1.223e-5
0.051, -1.221e-5
0.050, -1.219e-5
0.049, -1.216e-5
0.048, -1.215e-5
0.047, -1.212e-5
0.046, -1.210e-5
0.045, -1.208e-5
0.044, -1.206e-5
0.043, -1.205e-5
0.042, -1.203e-5
0.041, -1.201e-5
0.040, -1.200e-5
0.039, -1.197e-5
0.038, -1.196e-5
0.037, -1.194e-5
0.036, -1.193e-5
0.035, -1.192e-5
0.034, -1.189e-5
0.033, -1.188e-5
0.032, -1.187e-5
0.031, -1.185e-5
0.030, -1.184e-5
0.029, -1.182e-5
0.028, -1.182e-5
0.027, -1.180e-5
0.026, -1.180e-5
0.025, -1.179e-5
0.024, -1.177e-5
0.023, -1.177e-5
0.022, -1.175e-5
0.021, -1.174e-5
0.020, -1.174e-5
0.019, -1.172e-5
0.018, -1.172e-5
0.017, -1.171e-5
0.016, -1.170e-5
0.015, -1.170e-5
0.014, -1.168e-5
0.013, -1.168e-5
0.012, -1.167e-5
0.011, -1.167e-5
0.010, -1.166e-5
0.009, -1.165e-5
0.008, -1.165e-5
0.007, -1.165e-5
0.006, -1.164e-5
0.005, -1.164e-5
0.004, -1.163e-5
0.003, -1.164e-5
0.002, -1.163e-5
0.001, -1.163e-5
