June 30, 2026   18:21:51
Cyclic Voltammetry
File: mecn_ar_0.1mtbapf6_3mm_1mmco(dmgh)2(py)cl_-1.3_to_0.9v_100mvs
Data Source:  Experiment
Instrument Model:  CHI660D
Header: 
Note: 

Init E (V) = 0
High E (V) = 0.9
Low E (V) = -1.3
Final E (V) = 0
Init P/N = N
Scan Rate (V/s) = 0.1
Segment = 3
Sample Interval (V) = 0.001
Quiet Time (sec) = 2
Sensitivity (A/V) = 1e-4
Comp R (ohm) = 136.3

Results:

Channel 1:
Segment 1:
Ep = -0.559V
ip = -2.324e-6A
Ah = -2.041e-6C

Ep = -1.078V
ip = -2.758e-5A
Ah = -1.660e-5C

Segment 2:
Ep = 0.465V
ip = 1.092e-4A
Ah = 6.641e-5C

Segment 3:
Ep = 0.412V
ip = -1.084e-4A
Ah = -6.433e-5C

Potential/V, Current/A

0.000, -1.491e-7
-0.001, -1.878e-7
-0.002, -2.127e-7
-0.003, -2.197e-7
-0.004, -2.329e-7
-0.005, -2.466e-7
-0.006, -2.446e-7
-0.007, -2.649e-7
-0.008, -2.657e-7
-0.009, -2.735e-7
-0.010, -2.846e-7
-0.011, -2.831e-7
-0.012, -2.976e-7
-0.013, -2.952e-7
-0.014, -3.056e-7
-0.015, -3.131e-7
-0.016, -3.133e-7
-0.017, -3.266e-7
-0.018, -3.257e-7
-0.019, -3.302e-7
-0.020, -3.395e-7
-0.021, -3.385e-7
-0.022, -3.502e-7
-0.023, -3.493e-7
-0.024, -3.567e-7
-0.025, -3.637e-7
-0.026, -3.614e-7
-0.027, -3.715e-7
-0.028, -3.726e-7
-0.029, -3.779e-7
-0.030, -3.830e-7
-0.031, -3.818e-7
-0.032, -3.976e-7
-0.033, -3.930e-7
-0.034, -3.988e-7
-0.035, -4.065e-7
-0.036, -4.046e-7
-0.037, -4.211e-7
-0.038, -4.106e-7
-0.039, -4.232e-7
-0.040, -4.313e-7
-0.041, -4.292e-7
-0.042, -4.425e-7
-0.043, -4.378e-7
-0.044, -4.488e-7
-0.045, -4.541e-7
-0.046, -4.514e-7
-0.047, -4.653e-7
-0.048, -4.628e-7
-0.049, -4.704e-7
-0.050, -4.775e-7
-0.051, -4.737e-7
-0.052, -4.900e-7
-0.053, -4.875e-7
-0.054, -4.946e-7
-0.055, -5.017e-7
-0.056, -5.007e-7
-0.057, -5.146e-7
-0.058, -5.117e-7
-0.059, -5.205e-7
-0.060, -5.306e-7
-0.061, -5.268e-7
-0.062, -5.400e-7
-0.063, -5.417e-7
-0.064, -5.457e-7
-0.065, -5.543e-7
-0.066, -5.566e-7
-0.067, -5.704e-7
-0.068, -5.688e-7
-0.069, -5.783e-7
-0.070, -5.836e-7
-0.071, -5.851e-7
-0.072, -6.009e-7
-0.073, -5.975e-7
-0.074, -6.074e-7
-0.075, -6.154e-7
-0.076, -6.191e-7
-0.077, -6.341e-7
-0.078, -6.290e-7
-0.079, -6.421e-7
-0.080, -6.500e-7
-0.081, -6.500e-7
-0.082, -6.659e-7
-0.083, -6.646e-7
-0.084, -6.790e-7
-0.085, -6.870e-7
-0.086, -6.881e-7
-0.087, -7.025e-7
-0.088, -7.060e-7
-0.089, -7.144e-7
-0.090, -7.238e-7
-0.091, -7.263e-7
-0.092, -7.468e-7
-0.093, -7.474e-7
-0.094, -7.598e-7
-0.095, -7.708e-7
-0.096, -7.735e-7
-0.097, -7.937e-7
-0.098, -7.947e-7
-0.099, -8.081e-7
-0.100, -8.201e-7
-0.101, -8.227e-7
-0.102, -8.424e-7
-0.103, -8.437e-7
-0.104, -8.576e-7
-0.105, -8.651e-7
-0.106, -8.716e-7
-0.107, -8.908e-7
-0.108, -8.946e-7
-0.109, -9.111e-7
-0.110, -9.210e-7
-0.111, -9.312e-7
-0.112, -9.498e-7
-0.113, -9.509e-7
-0.114, -9.695e-7
-0.115, -9.760e-7
-0.116, -9.878e-7
-0.117, -1.009e-6
-0.118, -1.012e-6
-0.119, -1.034e-6
-0.120, -1.049e-6
-0.121, -1.056e-6
-0.122, -1.077e-6
-0.123, -1.082e-6
-0.124, -1.106e-6
-0.125, -1.118e-6
-0.126, -1.127e-6
-0.127, -1.152e-6
-0.128, -1.163e-6
-0.129, -1.182e-6
-0.130, -1.196e-6
-0.131, -1.206e-6
-0.132, -1.234e-6
-0.133, -1.242e-6
-0.134, -1.265e-6
-0.135, -1.284e-6
-0.136, -1.298e-6
-0.137, -1.324e-6
-0.138, -1.331e-6
-0.139, -1.355e-6
-0.140, -1.372e-6
-0.141, -1.386e-6
-0.142, -1.415e-6
-0.143, -1.426e-6
-0.144, -1.454e-6
-0.145, -1.475e-6
-0.146, -1.493e-6
-0.147, -1.521e-6
-0.148, -1.535e-6
-0.149, -1.564e-6
-0.150, -1.582e-6
-0.151, -1.603e-6
-0.152, -1.635e-6
-0.153, -1.646e-6
-0.154, -1.680e-6
-0.155, -1.701e-6
-0.156, -1.724e-6
-0.157, -1.760e-6
-0.158, -1.776e-6
-0.159, -1.809e-6
-0.160, -1.833e-6
-0.161, -1.855e-6
-0.162, -1.892e-6
-0.163, -1.910e-6
-0.164, -1.948e-6
-0.165, -1.972e-6
-0.166, -1.993e-6
-0.167, -2.035e-6
-0.168, -2.057e-6
-0.169, -2.091e-6
-0.170, -2.121e-6
-0.171, -2.151e-6
-0.172, -2.194e-6
-0.173, -2.217e-6
-0.174, -2.258e-6
-0.175, -2.293e-6
-0.176, -2.323e-6
-0.177, -2.365e-6
-0.178, -2.394e-6
-0.179, -2.443e-6
-0.180, -2.477e-6
-0.181, -2.511e-6
-0.182, -2.552e-6
-0.183, -2.586e-6
-0.184, -2.635e-6
-0.185, -2.671e-6
-0.186, -2.709e-6
-0.187, -2.761e-6
-0.188, -2.798e-6
-0.189, -2.846e-6
-0.190, -2.889e-6
-0.191, -2.930e-6
-0.192, -2.978e-6
-0.193, -3.022e-6
-0.194, -3.077e-6
-0.195, -3.119e-6
-0.196, -3.170e-6
-0.197, -3.229e-6
-0.198, -3.268e-6
-0.199, -3.332e-6
-0.200, -3.378e-6
-0.201, -3.430e-6
-0.202, -3.491e-6
-0.203, -3.537e-6
-0.204, -3.595e-6
-0.205, -3.645e-6
-0.206, -3.704e-6
-0.207, -3.773e-6
-0.208, -3.823e-6
-0.209, -3.892e-6
-0.210, -3.952e-6
-0.211, -4.005e-6
-0.212, -4.075e-6
-0.213, -4.126e-6
-0.214, -4.201e-6
-0.215, -4.263e-6
-0.216, -4.328e-6
-0.217, -4.399e-6
-0.218, -4.458e-6
-0.219, -4.535e-6
-0.220, -4.603e-6
-0.221, -4.677e-6
-0.222, -4.754e-6
-0.223, -4.822e-6
-0.224, -4.902e-6
-0.225, -4.974e-6
-0.226, -5.051e-6
-0.227, -5.138e-6
-0.228, -5.207e-6
-0.229, -5.293e-6
-0.230, -5.372e-6
-0.231, -5.452e-6
-0.232, -5.540e-6
-0.233, -5.614e-6
-0.234, -5.707e-6
-0.235, -5.788e-6
-0.236, -5.874e-6
-0.237, -5.960e-6
-0.238, -6.041e-6
-0.239, -6.141e-6
-0.240, -6.224e-6
-0.241, -6.312e-6
-0.242, -6.406e-6
-0.243, -6.482e-6
-0.244, -6.589e-6
-0.245, -6.678e-6
-0.246, -6.768e-6
-0.247, -6.869e-6
-0.248, -6.958e-6
-0.249, -7.062e-6
-0.250, -7.156e-6
-0.251, -7.250e-6
-0.252, -7.354e-6
-0.253, -7.443e-6
-0.254, -7.547e-6
-0.255, -7.643e-6
-0.256, -7.736e-6
-0.257, -7.843e-6
-0.258, -7.940e-6
-0.259, -8.050e-6
-0.260, -8.149e-6
-0.261, -8.245e-6
-0.262, -8.348e-6
-0.263, -8.441e-6
-0.264, -8.552e-6
-0.265, -8.650e-6
-0.266, -8.746e-6
-0.267, -8.853e-6
-0.268, -8.949e-6
-0.269, -9.052e-6
-0.270, -9.148e-6
-0.271, -9.252e-6
-0.272, -9.355e-6
-0.273, -9.449e-6
-0.274, -9.561e-6
-0.275, -9.650e-6
-0.276, -9.753e-6
-0.277, -9.850e-6
-0.278, -9.937e-6
-0.279, -1.005e-5
-0.280, -1.014e-5
-0.281, -1.024e-5
-0.282, -1.034e-5
-0.283, -1.043e-5
-0.284, -1.053e-5
-0.285, -1.062e-5
-0.286, -1.071e-5
-0.287, -1.081e-5
-0.288, -1.089e-5
-0.289, -1.099e-5
-0.290, -1.107e-5
-0.291, -1.117e-5
-0.292, -1.125e-5
-0.293, -1.133e-5
-0.294, -1.141e-5
-0.295, -1.149e-5
-0.296, -1.157e-5
-0.297, -1.166e-5
-0.298, -1.173e-5
-0.299, -1.181e-5
-0.300, -1.188e-5
-0.301, -1.196e-5
-0.302, -1.204e-5
-0.303, -1.211e-5
-0.304, -1.218e-5
-0.305, -1.224e-5
-0.306, -1.231e-5
-0.307, -1.239e-5
-0.308, -1.244e-5
-0.309, -1.252e-5
-0.310, -1.257e-5
-0.311, -1.263e-5
-0.312, -1.269e-5
-0.313, -1.274e-5
-0.314, -1.280e-5
-0.315, -1.284e-5
-0.316, -1.290e-5
-0.317, -1.295e-5
-0.318, -1.299e-5
-0.319, -1.305e-5
-0.320, -1.308e-5
-0.321, -1.313e-5
-0.322, -1.317e-5
-0.323, -1.320e-5
-0.324, -1.325e-5
-0.325, -1.328e-5
-0.326, -1.331e-5
-0.327, -1.335e-5
-0.328, -1.338e-5
-0.329, -1.342e-5
-0.330, -1.344e-5
-0.331, -1.348e-5
-0.332, -1.351e-5
-0.333, -1.353e-5
-0.334, -1.356e-5
-0.335, -1.357e-5
-0.336, -1.360e-5
-0.337, -1.362e-5
-0.338, -1.363e-5
-0.339, -1.365e-5
-0.340, -1.367e-5
-0.341, -1.369e-5
-0.342, -1.370e-5
-0.343, -1.371e-5
-0.344, -1.373e-5
-0.345, -1.373e-5
-0.346, -1.374e-5
-0.347, -1.375e-5
-0.348, -1.376e-5
-0.349, -1.378e-5
-0.350, -1.378e-5
-0.351, -1.379e-5
-0.352, -1.379e-5
-0.353, -1.379e-5
-0.354, -1.381e-5
-0.355, -1.380e-5
-0.356, -1.382e-5
-0.357, -1.382e-5
-0.358, -1.381e-5
-0.359, -1.383e-5
-0.360, -1.383e-5
-0.361, -1.383e-5
-0.362, -1.383e-5
-0.363, -1.383e-5
-0.364, -1.384e-5
-0.365, -1.383e-5
-0.366, -1.383e-5
-0.367, -1.384e-5
-0.368, -1.383e-5
-0.369, -1.384e-5
-0.370, -1.384e-5
-0.371, -1.383e-5
-0.372, -1.384e-5
-0.373, -1.383e-5
-0.374, -1.384e-5
-0.375, -1.383e-5
-0.376, -1.384e-5
-0.377, -1.384e-5
-0.378, -1.383e-5
-0.379, -1.385e-5
-0.380, -1.384e-5
-0.381, -1.385e-5
-0.382, -1.385e-5
-0.383, -1.384e-5
-0.384, -1.386e-5
-0.385, -1.385e-5
-0.386, -1.385e-5
-0.387, -1.385e-5
-0.388, -1.386e-5
-0.389, -1.387e-5
-0.390, -1.386e-5
-0.391, -1.387e-5
-0.392, -1.387e-5
-0.393, -1.387e-5
-0.394, -1.388e-5
-0.395, -1.388e-5
-0.396, -1.389e-5
-0.397, -1.389e-5
-0.398, -1.389e-5
-0.399, -1.391e-5
-0.400, -1.390e-5
-0.401, -1.391e-5
-0.402, -1.392e-5
-0.403, -1.392e-5
-0.404, -1.394e-5
-0.405, -1.394e-5
-0.406, -1.395e-5
-0.407, -1.397e-5
-0.408, -1.396e-5
-0.409, -1.396e-5
-0.410, -1.397e-5
-0.411, -1.398e-5
-0.412, -1.400e-5
-0.413, -1.400e-5
-0.414, -1.402e-5
-0.415, -1.403e-5
-0.416, -1.404e-5
-0.417, -1.406e-5
-0.418, -1.406e-5
-0.419, -1.408e-5
-0.420, -1.409e-5
-0.421, -1.410e-5
-0.422, -1.411e-5
-0.423, -1.412e-5
-0.424, -1.415e-5
-0.425, -1.415e-5
-0.426, -1.417e-5
-0.427, -1.419e-5
-0.428, -1.420e-5
-0.429, -1.423e-5
-0.430, -1.423e-5
-0.431, -1.425e-5
-0.432, -1.427e-5
-0.433, -1.428e-5
-0.434, -1.431e-5
-0.435, -1.433e-5
-0.436, -1.435e-5
-0.437, -1.437e-5
-0.438, -1.438e-5
-0.439, -1.441e-5
-0.440, -1.442e-5
-0.441, -1.444e-5
-0.442, -1.447e-5
-0.443, -1.448e-5
-0.444, -1.451e-5
-0.445, -1.452e-5
-0.446, -1.454e-5
-0.447, -1.456e-5
-0.448, -1.457e-5
-0.449, -1.461e-5
-0.450, -1.462e-5
-0.451, -1.464e-5
-0.452, -1.467e-5
-0.453, -1.468e-5
-0.454, -1.471e-5
-0.455, -1.473e-5
-0.456, -1.476e-5
-0.457, -1.478e-5
-0.458, -1.479e-5
-0.459, -1.483e-5
-0.460, -1.484e-5
-0.461, -1.487e-5
-0.462, -1.489e-5
-0.463, -1.491e-5
-0.464, -1.495e-5
-0.465, -1.496e-5
-0.466, -1.499e-5
-0.467, -1.501e-5
-0.468, -1.503e-5
-0.469, -1.506e-5
-0.470, -1.508e-5
-0.471, -1.510e-5
-0.472, -1.513e-5
-0.473, -1.514e-5
-0.474, -1.517e-5
-0.475, -1.519e-5
-0.476, -1.522e-5
-0.477, -1.525e-5
-0.478, -1.526e-5
-0.479, -1.530e-5
-0.480, -1.531e-5
-0.481, -1.534e-5
-0.482, -1.536e-5
-0.483, -1.538e-5
-0.484, -1.541e-5
-0.485, -1.543e-5
-0.486, -1.546e-5
-0.487, -1.549e-5
-0.488, -1.550e-5
-0.489, -1.553e-5
-0.490, -1.555e-5
-0.491, -1.557e-5
-0.492, -1.560e-5
-0.493, -1.561e-5
-0.494, -1.565e-5
-0.495, -1.566e-5
-0.496, -1.569e-5
-0.497, -1.571e-5
-0.498, -1.572e-5
-0.499, -1.575e-5
-0.500, -1.576e-5
-0.501, -1.579e-5
-0.502, -1.580e-5
-0.503, -1.582e-5
-0.504, -1.585e-5
-0.505, -1.586e-5
-0.506, -1.589e-5
-0.507, -1.591e-5
-0.508, -1.592e-5
-0.509, -1.595e-5
-0.510, -1.595e-5
-0.511, -1.598e-5
-0.512, -1.601e-5
-0.513, -1.601e-5
-0.514, -1.604e-5
-0.515, -1.605e-5
-0.516, -1.607e-5
-0.517, -1.608e-5
-0.518, -1.609e-5
-0.519, -1.612e-5
-0.520, -1.612e-5
-0.521, -1.614e-5
-0.522, -1.616e-5
-0.523, -1.616e-5
-0.524, -1.619e-5
-0.525, -1.619e-5
-0.526, -1.620e-5
-0.527, -1.622e-5
-0.528, -1.623e-5
-0.529, -1.625e-5
-0.530, -1.624e-5
-0.531, -1.626e-5
-0.532, -1.627e-5
-0.533, -1.628e-5
-0.534, -1.630e-5
-0.535, -1.630e-5
-0.536, -1.631e-5
-0.537, -1.633e-5
-0.538, -1.633e-5
-0.539, -1.634e-5
-0.540, -1.634e-5
-0.541, -1.635e-5
-0.542, -1.635e-5
-0.543, -1.636e-5
-0.544, -1.637e-5
-0.545, -1.637e-5
-0.546, -1.638e-5
-0.547, -1.638e-5
-0.548, -1.638e-5
-0.549, -1.639e-5
-0.550, -1.638e-5
-0.551, -1.639e-5
-0.552, -1.639e-5
-0.553, -1.639e-5
-0.554, -1.640e-5
-0.555, -1.639e-5
-0.556, -1.640e-5
-0.557, -1.639e-5
-0.558, -1.639e-5
-0.559, -1.640e-5
-0.560, -1.639e-5
-0.561, -1.639e-5
-0.562, -1.639e-5
-0.563, -1.637e-5
-0.564, -1.639e-5
-0.565, -1.637e-5
-0.566, -1.637e-5
-0.567, -1.637e-5
-0.568, -1.636e-5
-0.569, -1.636e-5
-0.570, -1.634e-5
-0.571, -1.635e-5
-0.572, -1.634e-5
-0.573, -1.633e-5
-0.574, -1.633e-5
-0.575, -1.631e-5
-0.576, -1.630e-5
-0.577, -1.630e-5
-0.578, -1.629e-5
-0.579, -1.629e-5
-0.580, -1.627e-5
-0.581, -1.627e-5
-0.582, -1.626e-5
-0.583, -1.625e-5
-0.584, -1.625e-5
-0.585, -1.622e-5
-0.586, -1.622e-5
-0.587, -1.621e-5
-0.588, -1.620e-5
-0.589, -1.620e-5
-0.590, -1.617e-5
-0.591, -1.618e-5
-0.592, -1.616e-5
-0.593, -1.614e-5
-0.594, -1.614e-5
-0.595, -1.611e-5
-0.596, -1.611e-5
-0.597, -1.610e-5
-0.598, -1.607e-5
-0.599, -1.608e-5
-0.600, -1.605e-5
-0.601, -1.604e-5
-0.602, -1.602e-5
-0.603, -1.601e-5
-0.604, -1.601e-5
-0.605, -1.598e-5
-0.606, -1.597e-5
-0.607, -1.596e-5
-0.608, -1.594e-5
-0.609, -1.593e-5
-0.610, -1.590e-5
-0.611, -1.590e-5
-0.612, -1.588e-5
-0.613, -1.586e-5
-0.614, -1.583e-5
-0.615, -1.582e-5
-0.616, -1.581e-5
-0.617, -1.580e-5
-0.618, -1.577e-5
-0.619, -1.577e-5
-0.620, -1.575e-5
-0.621, -1.574e-5
-0.622, -1.571e-5
-0.623, -1.570e-5
-0.624, -1.569e-5
-0.625, -1.566e-5
-0.626, -1.566e-5
-0.627, -1.562e-5
-0.628, -1.561e-5
-0.629, -1.560e-5
-0.630, -1.557e-5
-0.631, -1.556e-5
-0.632, -1.555e-5
-0.633, -1.552e-5
-0.634, -1.552e-5
-0.635, -1.548e-5
-0.636, -1.548e-5
-0.637, -1.546e-5
-0.638, -1.544e-5
-0.639, -1.543e-5
-0.640, -1.541e-5
-0.641, -1.539e-5
-0.642, -1.537e-5
-0.643, -1.534e-5
-0.644, -1.534e-5
-0.645, -1.530e-5
-0.646, -1.529e-5
-0.647, -1.527e-5
-0.648, -1.525e-5
-0.649, -1.524e-5
-0.650, -1.521e-5
-0.651, -1.520e-5
-0.652, -1.518e-5
-0.653, -1.515e-5
-0.654, -1.514e-5
-0.655, -1.511e-5
-0.656, -1.511e-5
-0.657, -1.508e-5
-0.658, -1.506e-5
-0.659, -1.505e-5
-0.660, -1.502e-5
-0.661, -1.501e-5
-0.662, -1.498e-5
-0.663, -1.496e-5
-0.664, -1.495e-5
-0.665, -1.492e-5
-0.666, -1.491e-5
-0.667, -1.488e-5
-0.668, -1.487e-5
-0.669, -1.485e-5
-0.670, -1.482e-5
-0.671, -1.481e-5
-0.672, -1.479e-5
-0.673, -1.476e-5
-0.674, -1.475e-5
-0.675, -1.472e-5
-0.676, -1.472e-5
-0.677, -1.469e-5
-0.678, -1.466e-5
-0.679, -1.465e-5
-0.680, -1.462e-5
-0.681, -1.461e-5
-0.682, -1.459e-5
-0.683, -1.457e-5
-0.684, -1.456e-5
-0.685, -1.452e-5
-0.686, -1.452e-5
-0.687, -1.449e-5
-0.688, -1.447e-5
-0.689, -1.446e-5
-0.690, -1.443e-5
-0.691, -1.443e-5
-0.692, -1.441e-5
-0.693, -1.438e-5
-0.694, -1.437e-5
-0.695, -1.434e-5
-0.696, -1.433e-5
-0.697, -1.431e-5
-0.698, -1.429e-5
-0.699, -1.427e-5
-0.700, -1.424e-5
-0.701, -1.424e-5
-0.702, -1.422e-5
-0.703, -1.420e-5
-0.704, -1.418e-5
-0.705, -1.415e-5
-0.706, -1.415e-5
-0.707, -1.412e-5
-0.708, -1.410e-5
-0.709, -1.410e-5
-0.710, -1.406e-5
-0.711, -1.406e-5
-0.712, -1.404e-5
-0.713, -1.402e-5
-0.714, -1.401e-5
-0.715, -1.398e-5
-0.716, -1.398e-5
-0.717, -1.397e-5
-0.718, -1.394e-5
-0.719, -1.394e-5
-0.720, -1.391e-5
-0.721, -1.390e-5
-0.722, -1.388e-5
-0.723, -1.386e-5
-0.724, -1.386e-5
-0.725, -1.383e-5
-0.726, -1.382e-5
-0.727, -1.380e-5
-0.728, -1.379e-5
-0.729, -1.377e-5
-0.730, -1.375e-5
-0.731, -1.375e-5
-0.732, -1.373e-5
-0.733, -1.371e-5
-0.734, -1.371e-5
-0.735, -1.369e-5
-0.736, -1.368e-5
-0.737, -1.366e-5
-0.738, -1.365e-5
-0.739, -1.364e-5
-0.740, -1.362e-5
-0.741, -1.362e-5
-0.742, -1.361e-5
-0.743, -1.359e-5
-0.744, -1.358e-5
-0.745, -1.356e-5
-0.746, -1.355e-5
-0.747, -1.354e-5
-0.748, -1.352e-5
-0.749, -1.352e-5
-0.750, -1.350e-5
-0.751, -1.350e-5
-0.752, -1.348e-5
-0.753, -1.347e-5
-0.754, -1.347e-5
-0.755, -1.343e-5
-0.756, -1.344e-5
-0.757, -1.343e-5
-0.758, -1.341e-5
-0.759, -1.341e-5
-0.760, -1.339e-5
-0.761, -1.339e-5
-0.762, -1.337e-5
-0.763, -1.336e-5
-0.764, -1.336e-5
-0.765, -1.334e-5
-0.766, -1.334e-5
-0.767, -1.333e-5
-0.768, -1.332e-5
-0.769, -1.332e-5
-0.770, -1.330e-5
-0.771, -1.330e-5
-0.772, -1.329e-5
-0.773, -1.328e-5
-0.774, -1.327e-5
-0.775, -1.326e-5
-0.776, -1.327e-5
-0.777, -1.325e-5
-0.778, -1.324e-5
-0.779, -1.324e-5
-0.780, -1.322e-5
-0.781, -1.323e-5
-0.782, -1.322e-5
-0.783, -1.321e-5
-0.784, -1.322e-5
-0.785, -1.320e-5
-0.786, -1.320e-5
-0.787, -1.319e-5
-0.788, -1.319e-5
-0.789, -1.319e-5
-0.790, -1.317e-5
-0.791, -1.318e-5
-0.792, -1.317e-5
-0.793, -1.317e-5
-0.794, -1.317e-5
-0.795, -1.315e-5
-0.796, -1.316e-5
-0.797, -1.315e-5
-0.798, -1.314e-5
-0.799, -1.315e-5
-0.800, -1.314e-5
-0.801, -1.315e-5
-0.802, -1.313e-5
-0.803, -1.313e-5
-0.804, -1.314e-5
-0.805, -1.313e-5
-0.806, -1.313e-5
-0.807, -1.312e-5
-0.808, -1.313e-5
-0.809, -1.313e-5
-0.810, -1.312e-5
-0.811, -1.313e-5
-0.812, -1.313e-5
-0.813, -1.312e-5
-0.814, -1.313e-5
-0.815, -1.311e-5
-0.816, -1.313e-5
-0.817, -1.312e-5
-0.818, -1.312e-5
-0.819, -1.311e-5
-0.820, -1.311e-5
-0.821, -1.313e-5
-0.822, -1.312e-5
-0.823, -1.312e-5
-0.824, -1.313e-5
-0.825, -1.312e-5
-0.826, -1.314e-5
-0.827, -1.313e-5
-0.828, -1.313e-5
-0.829, -1.314e-5
-0.830, -1.313e-5
-0.831, -1.314e-5
-0.832, -1.313e-5
-0.833, -1.314e-5
-0.834, -1.315e-5
-0.835, -1.314e-5
-0.836, -1.316e-5
-0.837, -1.315e-5
-0.838, -1.315e-5
-0.839, -1.316e-5
-0.840, -1.315e-5
-0.841, -1.317e-5
-0.842, -1.316e-5
-0.843, -1.317e-5
-0.844, -1.318e-5
-0.845, -1.317e-5
-0.846, -1.319e-5
-0.847, -1.318e-5
-0.848, -1.319e-5
-0.849, -1.320e-5
-0.850, -1.319e-5
-0.851, -1.320e-5
-0.852, -1.320e-5
-0.853, -1.321e-5
-0.854, -1.321e-5
-0.855, -1.321e-5
-0.856, -1.322e-5
-0.857, -1.321e-5
-0.858, -1.322e-5
-0.859, -1.323e-5
-0.860, -1.322e-5
-0.861, -1.324e-5
-0.862, -1.323e-5
-0.863, -1.323e-5
-0.864, -1.325e-5
-0.865, -1.324e-5
-0.866, -1.325e-5
-0.867, -1.325e-5
-0.868, -1.326e-5
-0.869, -1.326e-5
-0.870, -1.324e-5
-0.871, -1.327e-5
-0.872, -1.326e-5
-0.873, -1.326e-5
-0.874, -1.327e-5
-0.875, -1.326e-5
-0.876, -1.328e-5
-0.877, -1.327e-5
-0.878, -1.327e-5
-0.879, -1.328e-5
-0.880, -1.327e-5
-0.881, -1.328e-5
-0.882, -1.328e-5
-0.883, -1.327e-5
-0.884, -1.329e-5
-0.885, -1.328e-5
-0.886, -1.329e-5
-0.887, -1.328e-5
-0.888, -1.329e-5
-0.889, -1.330e-5
-0.890, -1.329e-5
-0.891, -1.330e-5
-0.892, -1.330e-5
-0.893, -1.330e-5
-0.894, -1.331e-5
-0.895, -1.330e-5
-0.896, -1.334e-5
-0.897, -1.332e-5
-0.898, -1.333e-5
-0.899, -1.333e-5
-0.900, -1.333e-5
-0.901, -1.335e-5
-0.902, -1.334e-5
-0.903, -1.336e-5
-0.904, -1.336e-5
-0.905, -1.336e-5
-0.906, -1.339e-5
-0.907, -1.338e-5
-0.908, -1.339e-5
-0.909, -1.340e-5
-0.910, -1.340e-5
-0.911, -1.343e-5
-0.912, -1.343e-5
-0.913, -1.345e-5
-0.914, -1.347e-5
-0.915, -1.347e-5
-0.916, -1.350e-5
-0.917, -1.350e-5
-0.918, -1.352e-5
-0.919, -1.355e-5
-0.920, -1.356e-5
-0.921, -1.360e-5
-0.922, -1.360e-5
-0.923, -1.363e-5
-0.924, -1.365e-5
-0.925, -1.366e-5
-0.926, -1.370e-5
-0.927, -1.372e-5
-0.928, -1.375e-5
-0.929, -1.377e-5
-0.930, -1.380e-5
-0.931, -1.384e-5
-0.932, -1.386e-5
-0.933, -1.390e-5
-0.934, -1.391e-5
-0.935, -1.395e-5
-0.936, -1.400e-5
-0.937, -1.403e-5
-0.938, -1.407e-5
-0.939, -1.411e-5
-0.940, -1.414e-5
-0.941, -1.420e-5
-0.942, -1.422e-5
-0.943, -1.428e-5
-0.944, -1.433e-5
-0.945, -1.436e-5
-0.946, -1.443e-5
-0.947, -1.447e-5
-0.948, -1.452e-5
-0.949, -1.457e-5
-0.950, -1.461e-5
-0.951, -1.468e-5
-0.952, -1.472e-5
-0.953, -1.478e-5
-0.954, -1.483e-5
-0.955, -1.489e-5
-0.956, -1.497e-5
-0.957, -1.501e-5
-0.958, -1.508e-5
-0.959, -1.514e-5
-0.960, -1.518e-5
-0.961, -1.527e-5
-0.962, -1.532e-5
-0.963, -1.541e-5
-0.964, -1.548e-5
-0.965, -1.555e-5
-0.966, -1.564e-5
-0.967, -1.570e-5
-0.968, -1.580e-5
-0.969, -1.588e-5
-0.970, -1.596e-5
-0.971, -1.608e-5
-0.972, -1.613e-5
-0.973, -1.625e-5
-0.974, -1.633e-5
-0.975, -1.643e-5
-0.976, -1.656e-5
-0.977, -1.664e-5
-0.978, -1.677e-5
-0.979, -1.688e-5
-0.980, -1.700e-5
-0.981, -1.714e-5
-0.982, -1.723e-5
-0.983, -1.740e-5
-0.984, -1.752e-5
-0.985, -1.764e-5
-0.986, -1.780e-5
-0.987, -1.793e-5
-0.988, -1.811e-5
-0.989, -1.826e-5
-0.990, -1.842e-5
-0.991, -1.862e-5
-0.992, -1.877e-5
-0.993, -1.898e-5
-0.994, -1.915e-5
-0.995, -1.932e-5
-0.996, -1.955e-5
-0.997, -1.972e-5
-0.998, -1.999e-5
-0.999, -2.017e-5
-1.000, -2.039e-5
-1.001, -2.064e-5
-1.002, -2.083e-5
-1.003, -2.112e-5
-1.004, -2.135e-5
-1.005, -2.159e-5
-1.006, -2.185e-5
-1.007, -2.208e-5
-1.008, -2.239e-5
-1.009, -2.266e-5
-1.010, -2.294e-5
-1.011, -2.318e-5
-1.012, -2.348e-5
-1.013, -2.383e-5
-1.014, -2.408e-5
-1.015, -2.441e-5
-1.016, -2.476e-5
-1.017, -2.501e-5
-1.018, -2.541e-5
-1.019, -2.568e-5
-1.020, -2.605e-5
-1.021, -2.642e-5
-1.022, -2.669e-5
-1.023, -2.712e-5
-1.024, -2.724e-5
-1.025, -2.772e-5
-1.026, -2.810e-5
-1.027, -2.842e-5
-1.028, -2.887e-5
-1.029, -2.918e-5
-1.030, -2.956e-5
-1.031, -2.996e-5
-1.032, -3.027e-5
-1.033, -3.073e-5
-1.034, -3.103e-5
-1.035, -3.143e-5
-1.036, -3.184e-5
-1.037, -3.207e-5
-1.038, -3.253e-5
-1.039, -3.285e-5
-1.040, -3.325e-5
-1.041, -3.364e-5
-1.042, -3.394e-5
-1.043, -3.433e-5
-1.044, -3.468e-5
-1.045, -3.503e-5
-1.046, -3.536e-5
-1.047, -3.566e-5
-1.048, -3.605e-5
-1.049, -3.637e-5
-1.050, -3.669e-5
-1.051, -3.697e-5
-1.052, -3.723e-5
-1.053, -3.759e-5
-1.054, -3.777e-5
-1.055, -3.808e-5
-1.056, -3.834e-5
-1.057, -3.852e-5
-1.058, -3.885e-5
-1.059, -3.897e-5
-1.060, -3.926e-5
-1.061, -3.950e-5
-1.062, -3.954e-5
-1.063, -3.983e-5
-1.064, -3.994e-5
-1.065, -4.014e-5
-1.066, -4.030e-5
-1.067, -4.035e-5
-1.068, -4.058e-5
-1.069, -4.064e-5
-1.070, -4.077e-5
-1.071, -4.087e-5
-1.072, -4.089e-5
-1.073, -4.104e-5
-1.074, -4.106e-5
-1.075, -4.108e-5
-1.076, -4.115e-5
-1.077, -4.113e-5
-1.078, -4.122e-5
-1.079, -4.117e-5
-1.080, -4.120e-5
-1.081, -4.121e-5
-1.082, -4.113e-5
-1.083, -4.116e-5
-1.084, -4.111e-5
-1.085, -4.109e-5
-1.086, -4.104e-5
-1.087, -4.095e-5
-1.088, -4.089e-5
-1.089, -4.081e-5
-1.090, -4.076e-5
-1.091, -4.068e-5
-1.092, -4.059e-5
-1.093, -4.054e-5
-1.094, -4.041e-5
-1.095, -4.032e-5
-1.096, -4.024e-5
-1.097, -4.010e-5
-1.098, -4.003e-5
-1.099, -3.989e-5
-1.100, -3.981e-5
-1.101, -3.973e-5
-1.102, -3.955e-5
-1.103, -3.947e-5
-1.104, -3.932e-5
-1.105, -3.919e-5
-1.106, -3.908e-5
-1.107, -3.892e-5
-1.108, -3.884e-5
-1.109, -3.867e-5
-1.110, -3.855e-5
-1.111, -3.843e-5
-1.112, -3.828e-5
-1.113, -3.817e-5
-1.114, -3.801e-5
-1.115, -3.789e-5
-1.116, -3.779e-5
-1.117, -3.764e-5
-1.118, -3.753e-5
-1.119, -3.738e-5
-1.120, -3.727e-5
-1.121, -3.715e-5
-1.122, -3.700e-5
-1.123, -3.691e-5
-1.124, -3.677e-5
-1.125, -3.666e-5
-1.126, -3.656e-5
-1.127, -3.642e-5
-1.128, -3.632e-5
-1.129, -3.619e-5
-1.130, -3.607e-5
-1.131, -3.596e-5
-1.132, -3.584e-5
-1.133, -3.574e-5
-1.134, -3.562e-5
-1.135, -3.551e-5
-1.136, -3.541e-5
-1.137, -3.529e-5
-1.138, -3.520e-5
-1.139, -3.508e-5
-1.140, -3.499e-5
-1.141, -3.490e-5
-1.142, -3.477e-5
-1.143, -3.469e-5
-1.144, -3.459e-5
-1.145, -3.449e-5
-1.146, -3.441e-5
-1.147, -3.430e-5
-1.148, -3.422e-5
-1.149, -3.412e-5
-1.150, -3.403e-5
-1.151, -3.395e-5
-1.152, -3.387e-5
-1.153, -3.378e-5
-1.154, -3.369e-5
-1.155, -3.360e-5
-1.156, -3.354e-5
-1.157, -3.343e-5
-1.158, -3.335e-5
-1.159, -3.328e-5
-1.160, -3.320e-5
-1.161, -3.314e-5
-1.162, -3.304e-5
-1.163, -3.298e-5
-1.164, -3.290e-5
-1.165, -3.282e-5
-1.166, -3.276e-5
-1.167, -3.267e-5
-1.168, -3.262e-5
-1.169, -3.255e-5
-1.170, -3.247e-5
-1.171, -3.242e-5
-1.172, -3.235e-5
-1.173, -3.229e-5
-1.174, -3.221e-5
-1.175, -3.215e-5
-1.176, -3.210e-5
-1.177, -3.202e-5
-1.178, -3.198e-5
-1.179, -3.191e-5
-1.180, -3.186e-5
-1.181, -3.181e-5
-1.182, -3.174e-5
-1.183, -3.170e-5
-1.184, -3.165e-5
-1.185, -3.159e-5
-1.186, -3.155e-5
-1.187, -3.148e-5
-1.188, -3.145e-5
-1.189, -3.139e-5
-1.190, -3.133e-5
-1.191, -3.131e-5
-1.192, -3.125e-5
-1.193, -3.121e-5
-1.194, -3.117e-5
-1.195, -3.112e-5
-1.196, -3.109e-5
-1.197, -3.104e-5
-1.198, -3.101e-5
-1.199, -3.096e-5
-1.200, -3.093e-5
-1.201, -3.091e-5
-1.202, -3.086e-5
-1.203, -3.085e-5
-1.204, -3.081e-5
-1.205, -3.077e-5
-1.206, -3.075e-5
-1.207, -3.072e-5
-1.208, -3.070e-5
-1.209, -3.067e-5
-1.210, -3.064e-5
-1.211, -3.063e-5
-1.212, -3.060e-5
-1.213, -3.059e-5
-1.214, -3.056e-5
-1.215, -3.055e-5
-1.216, -3.053e-5
-1.217, -3.051e-5
-1.218, -3.051e-5
-1.219, -3.049e-5
-1.220, -3.048e-5
-1.221, -3.048e-5
-1.222, -3.045e-5
-1.223, -3.046e-5
-1.224, -3.045e-5
-1.225, -3.044e-5
-1.226, -3.045e-5
-1.227, -3.043e-5
-1.228, -3.043e-5
-1.229, -3.043e-5
-1.230, -3.043e-5
-1.231, -3.045e-5
-1.232, -3.044e-5
-1.233, -3.046e-5
-1.234, -3.046e-5
-1.235, -3.047e-5
-1.236, -3.049e-5
-1.237, -3.049e-5
-1.238, -3.051e-5
-1.239, -3.052e-5
-1.240, -3.054e-5
-1.241, -3.056e-5
-1.242, -3.056e-5
-1.243, -3.060e-5
-1.244, -3.062e-5
-1.245, -3.063e-5
-1.246, -3.067e-5
-1.247, -3.068e-5
-1.248, -3.072e-5
-1.249, -3.074e-5
-1.250, -3.077e-5
-1.251, -3.080e-5
-1.252, -3.082e-5
-1.253, -3.087e-5
-1.254, -3.090e-5
-1.255, -3.094e-5
-1.256, -3.099e-5
-1.257, -3.101e-5
-1.258, -3.106e-5
-1.259, -3.109e-5
-1.260, -3.113e-5
-1.261, -3.118e-5
-1.262, -3.121e-5
-1.263, -3.127e-5
-1.264, -3.131e-5
-1.265, -3.135e-5
-1.266, -3.141e-5
-1.267, -3.143e-5
-1.268, -3.150e-5
-1.269, -3.154e-5
-1.270, -3.159e-5
-1.271, -3.165e-5
-1.272, -3.169e-5
-1.273, -3.175e-5
-1.274, -3.180e-5
-1.275, -3.185e-5
-1.276, -3.192e-5
-1.277, -3.196e-5
-1.278, -3.202e-5
-1.279, -3.208e-5
-1.280, -3.213e-5
-1.281, -3.220e-5
-1.282, -3.224e-5
-1.283, -3.231e-5
-1.284, -3.237e-5
-1.285, -3.242e-5
-1.286, -3.249e-5
-1.287, -3.254e-5
-1.288, -3.261e-5
-1.289, -3.267e-5
-1.290, -3.273e-5
-1.291, -3.279e-5
-1.292, -3.284e-5
-1.293, -3.291e-5
-1.294, -3.296e-5
-1.295, -3.303e-5
-1.296, -3.310e-5
-1.297, -3.314e-5
-1.298, -3.322e-5
-1.299, -3.327e-5
-1.300, -3.279e-5
-1.299, -3.229e-5
-1.298, -3.191e-5
-1.297, -3.162e-5
-1.296, -3.132e-5
-1.295, -3.104e-5
-1.294, -3.080e-5
-1.293, -3.057e-5
-1.292, -3.035e-5
-1.291, -3.012e-5
-1.290, -2.992e-5
-1.289, -2.973e-5
-1.288, -2.953e-5
-1.287, -2.936e-5
-1.286, -2.918e-5
-1.285, -2.900e-5
-1.284, -2.884e-5
-1.283, -2.866e-5
-1.282, -2.852e-5
-1.281, -2.835e-5
-1.280, -2.821e-5
-1.279, -2.807e-5
-1.278, -2.790e-5
-1.277, -2.778e-5
-1.276, -2.763e-5
-1.275, -2.749e-5
-1.274, -2.736e-5
-1.273, -2.722e-5
-1.272, -2.710e-5
-1.271, -2.697e-5
-1.270, -2.684e-5
-1.269, -2.673e-5
-1.268, -2.659e-5
-1.267, -2.649e-5
-1.266, -2.637e-5
-1.265, -2.625e-5
-1.264, -2.615e-5
-1.263, -2.602e-5
-1.262, -2.592e-5
-1.261, -2.582e-5
-1.260, -2.570e-5
-1.259, -2.561e-5
-1.258, -2.549e-5
-1.257, -2.541e-5
-1.256, -2.531e-5
-1.255, -2.519e-5
-1.254, -2.511e-5
-1.253, -2.500e-5
-1.252, -2.492e-5
-1.251, -2.482e-5
-1.250, -2.473e-5
-1.249, -2.464e-5
-1.248, -2.454e-5
-1.247, -2.446e-5
-1.246, -2.437e-5
-1.245, -2.429e-5
-1.244, -2.421e-5
-1.243, -2.411e-5
-1.242, -2.405e-5
-1.241, -2.396e-5
-1.240, -2.388e-5
-1.239, -2.381e-5
-1.238, -2.372e-5
-1.237, -2.365e-5
-1.236, -2.357e-5
-1.235, -2.350e-5
-1.234, -2.342e-5
-1.233, -2.334e-5
-1.232, -2.328e-5
-1.231, -2.320e-5
-1.230, -2.313e-5
-1.229, -2.310e-5
-1.228, -2.299e-5
-1.227, -2.293e-5
-1.226, -2.286e-5
-1.225, -2.280e-5
-1.224, -2.274e-5
-1.223, -2.266e-5
-1.222, -2.260e-5
-1.221, -2.253e-5
-1.220, -2.247e-5
-1.219, -2.241e-5
-1.218, -2.233e-5
-1.217, -2.229e-5
-1.216, -2.223e-5
-1.215, -2.216e-5
-1.214, -2.211e-5
-1.213, -2.204e-5
-1.212, -2.199e-5
-1.211, -2.192e-5
-1.210, -2.187e-5
-1.209, -2.182e-5
-1.208, -2.175e-5
-1.207, -2.170e-5
-1.206, -2.164e-5
-1.205, -2.158e-5
-1.204, -2.153e-5
-1.203, -2.146e-5
-1.202, -2.143e-5
-1.201, -2.136e-5
-1.200, -2.131e-5
-1.199, -2.127e-5
-1.198, -2.120e-5
-1.197, -2.116e-5
-1.196, -2.109e-5
-1.195, -2.104e-5
-1.194, -2.100e-5
-1.193, -2.094e-5
-1.192, -2.090e-5
-1.191, -2.084e-5
-1.190, -2.078e-5
-1.189, -2.074e-5
-1.188, -2.067e-5
-1.187, -2.063e-5
-1.186, -2.057e-5
-1.185, -2.052e-5
-1.184, -2.048e-5
-1.183, -2.042e-5
-1.182, -2.038e-5
-1.181, -2.032e-5
-1.180, -2.026e-5
-1.179, -2.022e-5
-1.178, -2.016e-5
-1.177, -2.012e-5
-1.176, -2.006e-5
-1.175, -2.001e-5
-1.174, -1.996e-5
-1.173, -1.991e-5
-1.172, -1.986e-5
-1.171, -1.980e-5
-1.170, -1.975e-5
-1.169, -1.970e-5
-1.168, -1.965e-5
-1.167, -1.960e-5
-1.166, -1.954e-5
-1.165, -1.950e-5
-1.164, -1.944e-5
-1.163, -1.938e-5
-1.162, -1.934e-5
-1.161, -1.927e-5
-1.160, -1.921e-5
-1.159, -1.917e-5
-1.158, -1.910e-5
-1.157, -1.907e-5
-1.156, -1.899e-5
-1.155, -1.894e-5
-1.154, -1.889e-5
-1.153, -1.882e-5
-1.152, -1.876e-5
-1.151, -1.870e-5
-1.150, -1.864e-5
-1.149, -1.860e-5
-1.148, -1.853e-5
-1.147, -1.848e-5
-1.146, -1.841e-5
-1.145, -1.835e-5
-1.144, -1.830e-5
-1.143, -1.822e-5
-1.142, -1.818e-5
-1.141, -1.810e-5
-1.140, -1.805e-5
-1.139, -1.800e-5
-1.138, -1.792e-5
-1.137, -1.787e-5
-1.136, -1.778e-5
-1.135, -1.772e-5
-1.134, -1.765e-5
-1.133, -1.759e-5
-1.132, -1.753e-5
-1.131, -1.745e-5
-1.130, -1.739e-5
-1.129, -1.732e-5
-1.128, -1.723e-5
-1.127, -1.717e-5
-1.126, -1.708e-5
-1.125, -1.703e-5
-1.124, -1.695e-5
-1.123, -1.687e-5
-1.122, -1.680e-5
-1.121, -1.671e-5
-1.120, -1.664e-5
-1.119, -1.657e-5
-1.118, -1.647e-5
-1.117, -1.641e-5
-1.116, -1.630e-5
-1.115, -1.623e-5
-1.114, -1.616e-5
-1.113, -1.605e-5
-1.112, -1.599e-5
-1.111, -1.587e-5
-1.110, -1.579e-5
-1.109, -1.569e-5
-1.108, -1.559e-5
-1.107, -1.550e-5
-1.106, -1.539e-5
-1.105, -1.530e-5
-1.104, -1.520e-5
-1.103, -1.508e-5
-1.102, -1.500e-5
-1.101, -1.484e-5
-1.100, -1.476e-5
-1.099, -1.466e-5
-1.098, -1.453e-5
-1.097, -1.444e-5
-1.096, -1.430e-5
-1.095, -1.420e-5
-1.094, -1.407e-5
-1.093, -1.396e-5
-1.092, -1.384e-5
-1.091, -1.368e-5
-1.090, -1.358e-5
-1.089, -1.345e-5
-1.088, -1.333e-5
-1.087, -1.321e-5
-1.086, -1.304e-5
-1.085, -1.293e-5
-1.084, -1.277e-5
-1.083, -1.262e-5
-1.082, -1.250e-5
-1.081, -1.233e-5
-1.080, -1.221e-5
-1.079, -1.203e-5
-1.078, -1.187e-5
-1.077, -1.175e-5
-1.076, -1.156e-5
-1.075, -1.144e-5
-1.074, -1.126e-5
-1.073, -1.110e-5
-1.072, -1.097e-5
-1.071, -1.075e-5
-1.070, -1.061e-5
-1.069, -1.044e-5
-1.068, -1.027e-5
-1.067, -1.014e-5
-1.066, -9.916e-6
-1.065, -9.792e-6
-1.064, -9.596e-6
-1.063, -9.440e-6
-1.062, -9.303e-6
-1.061, -9.101e-6
-1.060, -8.947e-6
-1.059, -8.752e-6
-1.058, -8.568e-6
-1.057, -8.433e-6
-1.056, -8.237e-6
-1.055, -8.096e-6
-1.054, -7.885e-6
-1.053, -7.748e-6
-1.052, -7.593e-6
-1.051, -7.382e-6
-1.050, -7.226e-6
-1.049, -7.026e-6
-1.048, -6.892e-6
-1.047, -6.746e-6
-1.046, -6.550e-6
-1.045, -6.468e-6
-1.044, -6.267e-6
-1.043, -6.118e-6
-1.042, -5.984e-6
-1.041, -5.810e-6
-1.040, -5.708e-6
-1.039, -5.513e-6
-1.038, -5.388e-6
-1.037, -5.314e-6
-1.036, -5.102e-6
-1.035, -5.002e-6
-1.034, -4.856e-6
-1.033, -4.729e-6
-1.032, -4.642e-6
-1.031, -4.462e-6
-1.030, -4.387e-6
-1.029, -4.259e-6
-1.028, -4.140e-6
-1.027, -4.068e-6
-1.026, -3.913e-6
-1.025, -3.836e-6
-1.024, -3.818e-6
-1.023, -3.651e-6
-1.022, -3.582e-6
-1.021, -3.463e-6
-1.020, -3.394e-6
-1.019, -3.289e-6
-1.018, -3.203e-6
-1.017, -3.147e-6
-1.016, -3.032e-6
-1.015, -2.982e-6
-1.014, -2.894e-6
-1.013, -2.832e-6
-1.012, -2.786e-6
-1.011, -2.711e-6
-1.010, -2.662e-6
-1.009, -2.574e-6
-1.008, -2.524e-6
-1.007, -2.479e-6
-1.006, -2.407e-6
-1.005, -2.384e-6
-1.004, -2.320e-6
-1.003, -2.267e-6
-1.002, -2.262e-6
-1.001, -2.173e-6
-1.000, -2.162e-6
-0.999, -2.096e-6
-0.998, -2.055e-6
-0.997, -2.058e-6
-0.996, -1.993e-6
-0.995, -1.991e-6
-0.994, -1.954e-6
-0.993, -1.922e-6
-0.992, -1.927e-6
-0.991, -1.868e-6
-0.990, -1.871e-6
-0.989, -1.835e-6
-0.988, -1.809e-6
-0.987, -1.806e-6
-0.986, -1.788e-6
-0.985, -1.782e-6
-0.984, -1.756e-6
-0.983, -1.726e-6
-0.982, -1.733e-6
-0.981, -1.710e-6
-0.980, -1.702e-6
-0.979, -1.689e-6
-0.978, -1.673e-6
-0.977, -1.677e-6
-0.976, -1.658e-6
-0.975, -1.661e-6
-0.974, -1.654e-6
-0.973, -1.649e-6
-0.972, -1.648e-6
-0.971, -1.626e-6
-0.970, -1.635e-6
-0.969, -1.629e-6
-0.968, -1.622e-6
-0.967, -1.629e-6
-0.966, -1.614e-6
-0.965, -1.629e-6
-0.964, -1.623e-6
-0.963, -1.610e-6
-0.962, -1.628e-6
-0.961, -1.612e-6
-0.960, -1.647e-6
-0.959, -1.634e-6
-0.958, -1.626e-6
-0.957, -1.653e-6
-0.956, -1.630e-6
-0.955, -1.646e-6
-0.954, -1.662e-6
-0.953, -1.653e-6
-0.952, -1.677e-6
-0.951, -1.667e-6
-0.950, -1.684e-6
-0.949, -1.704e-6
-0.948, -1.689e-6
-0.947, -1.704e-6
-0.946, -1.710e-6
-0.945, -1.730e-6
-0.944, -1.745e-6
-0.943, -1.744e-6
-0.942, -1.779e-6
-0.941, -1.780e-6
-0.940, -1.798e-6
-0.939, -1.810e-6
-0.938, -1.826e-6
-0.937, -1.850e-6
-0.936, -1.851e-6
-0.935, -1.879e-6
-0.934, -1.899e-6
-0.933, -1.905e-6
-0.932, -1.937e-6
-0.931, -1.938e-6
-0.930, -1.971e-6
-0.929, -1.985e-6
-0.928, -1.997e-6
-0.927, -2.029e-6
-0.926, -2.042e-6
-0.925, -2.072e-6
-0.924, -2.089e-6
-0.923, -2.097e-6
-0.922, -2.130e-6
-0.921, -2.142e-6
-0.920, -2.178e-6
-0.919, -2.202e-6
-0.918, -2.210e-6
-0.917, -2.256e-6
-0.916, -2.261e-6
-0.915, -2.294e-6
-0.914, -2.316e-6
-0.913, -2.328e-6
-0.912, -2.370e-6
-0.911, -2.380e-6
-0.910, -2.407e-6
-0.909, -2.442e-6
-0.908, -2.447e-6
-0.907, -2.483e-6
-0.906, -2.498e-6
-0.905, -2.528e-6
-0.904, -2.544e-6
-0.903, -2.554e-6
-0.902, -2.591e-6
-0.901, -2.601e-6
-0.900, -2.630e-6
-0.899, -2.650e-6
-0.898, -2.667e-6
-0.897, -2.700e-6
-0.896, -2.694e-6
-0.895, -2.728e-6
-0.894, -2.751e-6
-0.893, -2.762e-6
-0.892, -2.791e-6
-0.891, -2.797e-6
-0.890, -2.825e-6
-0.889, -2.845e-6
-0.888, -2.854e-6
-0.887, -2.880e-6
-0.886, -2.883e-6
-0.885, -2.911e-6
-0.884, -2.927e-6
-0.883, -2.940e-6
-0.882, -2.962e-6
-0.881, -2.967e-6
-0.880, -2.987e-6
-0.879, -3.006e-6
-0.878, -3.009e-6
-0.877, -3.039e-6
-0.876, -3.034e-6
-0.875, -3.062e-6
-0.874, -3.078e-6
-0.873, -3.082e-6
-0.872, -3.107e-6
-0.871, -3.110e-6
-0.870, -3.129e-6
-0.869, -3.146e-6
-0.868, -3.146e-6
-0.867, -3.174e-6
-0.866, -3.171e-6
-0.865, -3.197e-6
-0.864, -3.210e-6
-0.863, -3.206e-6
-0.862, -3.239e-6
-0.861, -3.238e-6
-0.860, -3.254e-6
-0.859, -3.268e-6
-0.858, -3.281e-6
-0.857, -3.298e-6
-0.856, -3.295e-6
-0.855, -3.311e-6
-0.854, -3.324e-6
-0.853, -3.331e-6
-0.852, -3.349e-6
-0.851, -3.350e-6
-0.850, -3.367e-6
-0.849, -3.380e-6
-0.848, -3.381e-6
-0.847, -3.404e-6
-0.846, -3.398e-6
-0.845, -3.414e-6
-0.844, -3.425e-6
-0.843, -3.430e-6
-0.842, -3.455e-6
-0.841, -3.450e-6
-0.840, -3.472e-6
-0.839, -3.478e-6
-0.838, -3.483e-6
-0.837, -3.504e-6
-0.836, -3.497e-6
-0.835, -3.515e-6
-0.834, -3.526e-6
-0.833, -3.525e-6
-0.832, -3.556e-6
-0.831, -3.543e-6
-0.830, -3.559e-6
-0.829, -3.572e-6
-0.828, -3.572e-6
-0.827, -3.595e-6
-0.826, -3.591e-6
-0.825, -3.606e-6
-0.824, -3.616e-6
-0.823, -3.613e-6
-0.822, -3.640e-6
-0.821, -3.634e-6
-0.820, -3.652e-6
-0.819, -3.666e-6
-0.818, -3.664e-6
-0.817, -3.680e-6
-0.816, -3.675e-6
-0.815, -3.692e-6
-0.814, -3.698e-6
-0.813, -3.711e-6
-0.812, -3.719e-6
-0.811, -3.720e-6
-0.810, -3.735e-6
-0.809, -3.742e-6
-0.808, -3.742e-6
-0.807, -3.765e-6
-0.806, -3.759e-6
-0.805, -3.774e-6
-0.804, -3.774e-6
-0.803, -3.778e-6
-0.802, -3.799e-6
-0.801, -3.790e-6
-0.800, -3.809e-6
-0.799, -3.809e-6
-0.798, -3.814e-6
-0.797, -3.839e-6
-0.796, -3.826e-6
-0.795, -3.843e-6
-0.794, -3.842e-6
-0.793, -3.848e-6
-0.792, -3.871e-6
-0.791, -3.858e-6
-0.790, -3.876e-6
-0.789, -3.880e-6
-0.788, -3.879e-6
-0.787, -3.901e-6
-0.786, -3.892e-6
-0.785, -3.909e-6
-0.784, -3.914e-6
-0.783, -3.911e-6
-0.782, -3.932e-6
-0.781, -3.932e-6
-0.780, -3.940e-6
-0.779, -3.944e-6
-0.778, -3.949e-6
-0.777, -3.966e-6
-0.776, -3.958e-6
-0.775, -3.970e-6
-0.774, -3.976e-6
-0.773, -3.979e-6
-0.772, -3.996e-6
-0.771, -3.982e-6
-0.770, -4.003e-6
-0.769, -4.006e-6
-0.768, -4.007e-6
-0.767, -4.024e-6
-0.766, -4.013e-6
-0.765, -4.031e-6
-0.764, -4.033e-6
-0.763, -4.028e-6
-0.762, -4.050e-6
-0.761, -4.039e-6
-0.760, -4.056e-6
-0.759, -4.053e-6
-0.758, -4.054e-6
-0.757, -4.074e-6
-0.756, -4.061e-6
-0.755, -4.082e-6
-0.754, -4.082e-6
-0.753, -4.078e-6
-0.752, -4.095e-6
-0.751, -4.081e-6
-0.750, -4.095e-6
-0.749, -4.105e-6
-0.748, -4.098e-6
-0.747, -4.112e-6
-0.746, -4.108e-6
-0.745, -4.120e-6
-0.744, -4.121e-6
-0.743, -4.110e-6
-0.742, -4.131e-6
-0.741, -4.129e-6
-0.740, -4.138e-6
-0.739, -4.138e-6
-0.738, -4.142e-6
-0.737, -4.155e-6
-0.736, -4.147e-6
-0.735, -4.160e-6
-0.734, -4.161e-6
-0.733, -4.162e-6
-0.732, -4.173e-6
-0.731, -4.165e-6
-0.730, -4.192e-6
-0.729, -4.180e-6
-0.728, -4.183e-6
-0.727, -4.195e-6
-0.726, -4.187e-6
-0.725, -4.202e-6
-0.724, -4.199e-6
-0.723, -4.200e-6
-0.722, -4.215e-6
-0.721, -4.201e-6
-0.720, -4.218e-6
-0.719, -4.211e-6
-0.718, -4.214e-6
-0.717, -4.223e-6
-0.716, -4.213e-6
-0.715, -4.226e-6
-0.714, -4.230e-6
-0.713, -4.228e-6
-0.712, -4.238e-6
-0.711, -4.228e-6
-0.710, -4.241e-6
-0.709, -4.243e-6
-0.708, -4.240e-6
-0.707, -4.247e-6
-0.706, -4.240e-6
-0.705, -4.252e-6
-0.704, -4.257e-6
-0.703, -4.248e-6
-0.702, -4.257e-6
-0.701, -4.252e-6
-0.700, -4.263e-6
-0.699, -4.258e-6
-0.698, -4.259e-6
-0.697, -4.268e-6
-0.696, -4.258e-6
-0.695, -4.270e-6
-0.694, -4.264e-6
-0.693, -4.265e-6
-0.692, -4.273e-6
-0.691, -4.252e-6
-0.690, -4.272e-6
-0.689, -4.271e-6
-0.688, -4.267e-6
-0.687, -4.276e-6
-0.686, -4.263e-6
-0.685, -4.282e-6
-0.684, -4.274e-6
-0.683, -4.269e-6
-0.682, -4.278e-6
-0.681, -4.266e-6
-0.680, -4.283e-6
-0.679, -4.281e-6
-0.678, -4.270e-6
-0.677, -4.285e-6
-0.676, -4.266e-6
-0.675, -4.278e-6
-0.674, -4.271e-6
-0.673, -4.271e-6
-0.672, -4.280e-6
-0.671, -4.269e-6
-0.670, -4.279e-6
-0.669, -4.273e-6
-0.668, -4.265e-6
-0.667, -4.277e-6
-0.666, -4.264e-6
-0.665, -4.274e-6
-0.664, -4.267e-6
-0.663, -4.259e-6
-0.662, -4.273e-6
-0.661, -4.258e-6
-0.660, -4.264e-6
-0.659, -4.260e-6
-0.658, -4.256e-6
-0.657, -4.265e-6
-0.656, -4.252e-6
-0.655, -4.257e-6
-0.654, -4.252e-6
-0.653, -4.255e-6
-0.652, -4.253e-6
-0.651, -4.238e-6
-0.650, -4.251e-6
-0.649, -4.241e-6
-0.648, -4.235e-6
-0.647, -4.244e-6
-0.646, -4.227e-6
-0.645, -4.242e-6
-0.644, -4.228e-6
-0.643, -4.223e-6
-0.642, -4.233e-6
-0.641, -4.217e-6
-0.640, -4.216e-6
-0.639, -4.213e-6
-0.638, -4.207e-6
-0.637, -4.223e-6
-0.636, -4.198e-6
-0.635, -4.210e-6
-0.634, -4.201e-6
-0.633, -4.195e-6
-0.632, -4.199e-6
-0.631, -4.183e-6
-0.630, -4.194e-6
-0.629, -4.184e-6
-0.628, -4.176e-6
-0.627, -4.188e-6
-0.626, -4.169e-6
-0.625, -4.178e-6
-0.624, -4.163e-6
-0.623, -4.159e-6
-0.622, -4.165e-6
-0.621, -4.151e-6
-0.620, -4.153e-6
-0.619, -4.144e-6
-0.618, -4.143e-6
-0.617, -4.146e-6
-0.616, -4.128e-6
-0.615, -4.146e-6
-0.614, -4.133e-6
-0.613, -4.121e-6
-0.612, -4.126e-6
-0.611, -4.110e-6
-0.610, -4.116e-6
-0.609, -4.105e-6
-0.608, -4.099e-6
-0.607, -4.102e-6
-0.606, -4.092e-6
-0.605, -4.096e-6
-0.604, -4.085e-6
-0.603, -4.078e-6
-0.602, -4.093e-6
-0.601, -4.073e-6
-0.600, -4.077e-6
-0.599, -4.063e-6
-0.598, -4.059e-6
-0.597, -4.066e-6
-0.596, -4.046e-6
-0.595, -4.053e-6
-0.594, -4.042e-6
-0.593, -4.035e-6
-0.592, -4.040e-6
-0.591, -4.021e-6
-0.590, -4.027e-6
-0.589, -4.011e-6
-0.588, -4.008e-6
-0.587, -4.011e-6
-0.586, -3.999e-6
-0.585, -4.001e-6
-0.584, -3.987e-6
-0.583, -3.981e-6
-0.582, -3.985e-6
-0.581, -3.969e-6
-0.580, -3.970e-6
-0.579, -3.956e-6
-0.578, -3.952e-6
-0.577, -3.954e-6
-0.576, -3.943e-6
-0.575, -3.941e-6
-0.574, -3.925e-6
-0.573, -3.921e-6
-0.572, -3.923e-6
-0.571, -3.906e-6
-0.570, -3.911e-6
-0.569, -3.895e-6
-0.568, -3.891e-6
-0.567, -3.885e-6
-0.566, -3.872e-6
-0.565, -3.878e-6
-0.564, -3.861e-6
-0.563, -3.856e-6
-0.562, -3.859e-6
-0.561, -3.832e-6
-0.560, -3.838e-6
-0.559, -3.825e-6
-0.558, -3.816e-6
-0.557, -3.820e-6
-0.556, -3.796e-6
-0.555, -3.800e-6
-0.554, -3.788e-6
-0.553, -3.780e-6
-0.552, -3.778e-6
-0.551, -3.768e-6
-0.550, -3.769e-6
-0.549, -3.754e-6
-0.548, -3.744e-6
-0.547, -3.742e-6
-0.546, -3.729e-6
-0.545, -3.730e-6
-0.544, -3.711e-6
-0.543, -3.700e-6
-0.542, -3.697e-6
-0.541, -3.682e-6
-0.540, -3.687e-6
-0.539, -3.663e-6
-0.538, -3.651e-6
-0.537, -3.655e-6
-0.536, -3.634e-6
-0.535, -3.640e-6
-0.534, -3.620e-6
-0.533, -3.617e-6
-0.532, -3.609e-6
-0.531, -3.587e-6
-0.530, -3.596e-6
-0.529, -3.577e-6
-0.528, -3.567e-6
-0.527, -3.564e-6
-0.526, -3.541e-6
-0.525, -3.555e-6
-0.524, -3.531e-6
-0.523, -3.524e-6
-0.522, -3.521e-6
-0.521, -3.500e-6
-0.520, -3.505e-6
-0.519, -3.487e-6
-0.518, -3.477e-6
-0.517, -3.475e-6
-0.516, -3.454e-6
-0.515, -3.456e-6
-0.514, -3.434e-6
-0.513, -3.426e-6
-0.512, -3.415e-6
-0.511, -3.398e-6
-0.510, -3.402e-6
-0.509, -3.388e-6
-0.508, -3.377e-6
-0.507, -3.373e-6
-0.506, -3.352e-6
-0.505, -3.354e-6
-0.504, -3.333e-6
-0.503, -3.327e-6
-0.502, -3.321e-6
-0.501, -3.298e-6
-0.500, -3.298e-6
-0.499, -3.286e-6
-0.498, -3.278e-6
-0.497, -3.267e-6
-0.496, -3.249e-6
-0.495, -3.250e-6
-0.494, -3.230e-6
-0.493, -3.225e-6
-0.492, -3.213e-6
-0.491, -3.190e-6
-0.490, -3.195e-6
-0.489, -3.172e-6
-0.488, -3.165e-6
-0.487, -3.154e-6
-0.486, -3.133e-6
-0.485, -3.140e-6
-0.484, -3.117e-6
-0.483, -3.108e-6
-0.482, -3.104e-6
-0.481, -3.081e-6
-0.480, -3.082e-6
-0.479, -3.062e-6
-0.478, -3.053e-6
-0.477, -3.048e-6
-0.476, -3.025e-6
-0.475, -3.026e-6
-0.474, -3.013e-6
-0.473, -2.999e-6
-0.472, -2.995e-6
-0.471, -2.968e-6
-0.470, -2.970e-6
-0.469, -2.952e-6
-0.468, -2.941e-6
-0.467, -2.931e-6
-0.466, -2.914e-6
-0.465, -2.917e-6
-0.464, -2.895e-6
-0.463, -2.883e-6
-0.462, -2.876e-6
-0.461, -2.859e-6
-0.460, -2.855e-6
-0.459, -2.834e-6
-0.458, -2.829e-6
-0.457, -2.820e-6
-0.456, -2.798e-6
-0.455, -2.800e-6
-0.454, -2.775e-6
-0.453, -2.773e-6
-0.452, -2.763e-6
-0.451, -2.739e-6
-0.450, -2.743e-6
-0.449, -2.720e-6
-0.448, -2.717e-6
-0.447, -2.703e-6
-0.446, -2.679e-6
-0.445, -2.683e-6
-0.444, -2.656e-6
-0.443, -2.647e-6
-0.442, -2.646e-6
-0.441, -2.617e-6
-0.440, -2.618e-6
-0.439, -2.597e-6
-0.438, -2.589e-6
-0.437, -2.581e-6
-0.436, -2.554e-6
-0.435, -2.553e-6
-0.434, -2.537e-6
-0.433, -2.528e-6
-0.432, -2.519e-6
-0.431, -2.496e-6
-0.430, -2.498e-6
-0.429, -2.478e-6
-0.428, -2.466e-6
-0.427, -2.457e-6
-0.426, -2.437e-6
-0.425, -2.438e-6
-0.424, -2.412e-6
-0.423, -2.408e-6
-0.422, -2.399e-6
-0.421, -2.377e-6
-0.420, -2.375e-6
-0.419, -2.347e-6
-0.418, -2.342e-6
-0.417, -2.332e-6
-0.416, -2.313e-6
-0.415, -2.309e-6
-0.414, -2.288e-6
-0.413, -2.281e-6
-0.412, -2.272e-6
-0.411, -2.242e-6
-0.410, -2.276e-6
-0.409, -2.229e-6
-0.408, -2.216e-6
-0.407, -2.208e-6
-0.406, -2.183e-6
-0.405, -2.184e-6
-0.404, -2.155e-6
-0.403, -2.151e-6
-0.402, -2.142e-6
-0.401, -2.116e-6
-0.400, -2.114e-6
-0.399, -2.090e-6
-0.398, -2.082e-6
-0.397, -2.079e-6
-0.396, -2.051e-6
-0.395, -2.049e-6
-0.394, -2.024e-6
-0.393, -2.017e-6
-0.392, -2.005e-6
-0.391, -1.984e-6
-0.390, -1.981e-6
-0.389, -1.955e-6
-0.388, -1.949e-6
-0.387, -1.937e-6
-0.386, -1.917e-6
-0.385, -1.915e-6
-0.384, -1.877e-6
-0.383, -1.874e-6
-0.382, -1.865e-6
-0.381, -1.840e-6
-0.380, -1.835e-6
-0.379, -1.813e-6
-0.378, -1.804e-6
-0.377, -1.794e-6
-0.376, -1.767e-6
-0.375, -1.766e-6
-0.374, -1.735e-6
-0.373, -1.727e-6
-0.372, -1.716e-6
-0.371, -1.694e-6
-0.370, -1.691e-6
-0.369, -1.661e-6
-0.368, -1.650e-6
-0.367, -1.634e-6
-0.366, -1.613e-6
-0.365, -1.610e-6
-0.364, -1.577e-6
-0.363, -1.567e-6
-0.362, -1.555e-6
-0.361, -1.532e-6
-0.360, -1.527e-6
-0.359, -1.497e-6
-0.358, -1.485e-6
-0.357, -1.470e-6
-0.356, -1.446e-6
-0.355, -1.436e-6
-0.354, -1.413e-6
-0.353, -1.398e-6
-0.352, -1.387e-6
-0.351, -1.354e-6
-0.350, -1.349e-6
-0.349, -1.327e-6
-0.348, -1.309e-6
-0.347, -1.294e-6
-0.346, -1.275e-6
-0.345, -1.262e-6
-0.344, -1.231e-6
-0.343, -1.217e-6
-0.342, -1.199e-6
-0.341, -1.175e-6
-0.340, -1.162e-6
-0.339, -1.136e-6
-0.338, -1.123e-6
-0.337, -1.102e-6
-0.336, -1.075e-6
-0.335, -1.064e-6
-0.334, -1.033e-6
-0.333, -1.010e-6
-0.332, -9.968e-7
-0.331, -9.693e-7
-0.330, -9.605e-7
-0.329, -9.311e-7
-0.328, -9.112e-7
-0.327, -8.963e-7
-0.326, -8.641e-7
-0.325, -8.541e-7
-0.324, -8.237e-7
-0.323, -8.057e-7
-0.322, -7.857e-7
-0.321, -7.539e-7
-0.320, -7.531e-7
-0.319, -7.122e-7
-0.318, -6.926e-7
-0.317, -6.761e-7
-0.316, -6.379e-7
-0.315, -6.304e-7
-0.314, -5.961e-7
-0.313, -5.803e-7
-0.312, -5.567e-7
-0.311, -5.263e-7
-0.310, -5.083e-7
-0.309, -4.799e-7
-0.308, -4.594e-7
-0.307, -4.257e-7
-0.306, -4.019e-7
-0.305, -3.884e-7
-0.304, -3.519e-7
-0.303, -3.343e-7
-0.302, -3.075e-7
-0.301, -2.773e-7
-0.300, -2.571e-7
-0.299, -2.186e-7
-0.298, -2.045e-7
-0.297, -1.785e-7
-0.296, -1.432e-7
-0.295, -1.312e-7
-0.294, -9.149e-8
-0.293, -7.015e-8
-0.292, -4.120e-8
-0.291, -4.268e-9
-0.290, 8.888e-9
-0.289, 5.021e-8
-0.288, 6.911e-8
-0.287, 9.845e-8
-0.286, 1.311e-7
-0.285, 1.466e-7
-0.284, 1.902e-7
-0.283, 2.082e-7
-0.282, 2.448e-7
-0.281, 2.740e-7
-0.280, 2.935e-7
-0.279, 3.370e-7
-0.278, 3.530e-7
-0.277, 3.809e-7
-0.276, 4.193e-7
-0.275, 4.347e-7
-0.274, 4.802e-7
-0.273, 4.981e-7
-0.272, 5.261e-7
-0.271, 5.724e-7
-0.270, 5.877e-7
-0.269, 6.170e-7
-0.268, 6.458e-7
-0.267, 6.749e-7
-0.266, 7.127e-7
-0.265, 7.340e-7
-0.264, 7.757e-7
-0.263, 7.989e-7
-0.262, 8.310e-7
-0.261, 8.672e-7
-0.260, 8.871e-7
-0.259, 9.309e-7
-0.258, 9.507e-7
-0.257, 9.836e-7
-0.256, 1.014e-6
-0.255, 1.040e-6
-0.254, 1.082e-6
-0.253, 1.100e-6
-0.252, 1.136e-6
-0.251, 1.173e-6
-0.250, 1.189e-6
-0.249, 1.235e-6
-0.248, 1.259e-6
-0.247, 1.291e-6
-0.246, 1.328e-6
-0.245, 1.344e-6
-0.244, 1.389e-6
-0.243, 1.406e-6
-0.242, 1.441e-6
-0.241, 1.475e-6
-0.240, 1.492e-6
-0.239, 1.540e-6
-0.238, 1.561e-6
-0.237, 1.591e-6
-0.236, 1.626e-6
-0.235, 1.649e-6
-0.234, 1.688e-6
-0.233, 1.712e-6
-0.232, 1.743e-6
-0.231, 1.787e-6
-0.230, 1.803e-6
-0.229, 1.841e-6
-0.228, 1.862e-6
-0.227, 1.896e-6
-0.226, 1.925e-6
-0.225, 1.947e-6
-0.224, 1.983e-6
-0.223, 2.008e-6
-0.222, 2.039e-6
-0.221, 2.069e-6
-0.220, 2.089e-6
-0.219, 2.128e-6
-0.218, 2.143e-6
-0.217, 2.180e-6
-0.216, 2.214e-6
-0.215, 2.234e-6
-0.214, 2.272e-6
-0.213, 2.292e-6
-0.212, 2.323e-6
-0.211, 2.353e-6
-0.210, 2.369e-6
-0.209, 2.414e-6
-0.208, 2.433e-6
-0.207, 2.463e-6
-0.206, 2.494e-6
-0.205, 2.490e-6
-0.204, 2.544e-6
-0.203, 2.563e-6
-0.202, 2.592e-6
-0.201, 2.623e-6
-0.200, 2.639e-6
-0.199, 2.682e-6
-0.198, 2.696e-6
-0.197, 2.721e-6
-0.196, 2.757e-6
-0.195, 2.772e-6
-0.194, 2.807e-6
-0.193, 2.823e-6
-0.192, 2.846e-6
-0.191, 2.879e-6
-0.190, 2.896e-6
-0.189, 2.931e-6
-0.188, 2.949e-6
-0.187, 2.977e-6
-0.186, 3.002e-6
-0.185, 3.018e-6
-0.184, 3.053e-6
-0.183, 3.066e-6
-0.182, 3.089e-6
-0.181, 3.119e-6
-0.180, 3.136e-6
-0.179, 3.182e-6
-0.178, 3.189e-6
-0.177, 3.214e-6
-0.176, 3.241e-6
-0.175, 3.253e-6
-0.174, 3.289e-6
-0.173, 3.297e-6
-0.172, 3.322e-6
-0.171, 3.350e-6
-0.170, 3.357e-6
-0.169, 3.395e-6
-0.168, 3.403e-6
-0.167, 3.429e-6
-0.166, 3.454e-6
-0.165, 3.462e-6
-0.164, 3.499e-6
-0.163, 3.513e-6
-0.162, 3.534e-6
-0.161, 3.560e-6
-0.160, 3.568e-6
-0.159, 3.603e-6
-0.158, 3.618e-6
-0.157, 3.640e-6
-0.156, 3.666e-6
-0.155, 3.673e-6
-0.154, 3.703e-6
-0.153, 3.715e-6
-0.152, 3.739e-6
-0.151, 3.765e-6
-0.150, 3.770e-6
-0.149, 3.802e-6
-0.148, 3.811e-6
-0.147, 3.836e-6
-0.146, 3.859e-6
-0.145, 3.870e-6
-0.144, 3.901e-6
-0.143, 3.912e-6
-0.142, 3.929e-6
-0.141, 3.944e-6
-0.140, 3.961e-6
-0.139, 3.993e-6
-0.138, 3.996e-6
-0.137, 4.017e-6
-0.136, 4.037e-6
-0.135, 4.047e-6
-0.134, 4.073e-6
-0.133, 4.079e-6
-0.132, 4.103e-6
-0.131, 4.128e-6
-0.130, 4.134e-6
-0.129, 4.162e-6
-0.128, 4.176e-6
-0.127, 4.194e-6
-0.126, 4.213e-6
-0.125, 4.217e-6
-0.124, 4.246e-6
-0.123, 4.251e-6
-0.122, 4.271e-6
-0.121, 4.287e-6
-0.120, 4.295e-6
-0.119, 4.323e-6
-0.118, 4.326e-6
-0.117, 4.343e-6
-0.116, 4.365e-6
-0.115, 4.363e-6
-0.114, 4.394e-6
-0.113, 4.400e-6
-0.112, 4.415e-6
-0.111, 4.433e-6
-0.110, 4.445e-6
-0.109, 4.466e-6
-0.108, 4.473e-6
-0.107, 4.492e-6
-0.106, 4.507e-6
-0.105, 4.514e-6
-0.104, 4.539e-6
-0.103, 4.549e-6
-0.102, 4.564e-6
-0.101, 4.579e-6
-0.100, 4.587e-6
-0.099, 4.613e-6
-0.098, 4.611e-6
-0.097, 4.634e-6
-0.096, 4.648e-6
-0.095, 4.650e-6
-0.094, 4.675e-6
-0.093, 4.675e-6
-0.092, 4.695e-6
-0.091, 4.712e-6
-0.090, 4.708e-6
-0.089, 4.736e-6
-0.088, 4.738e-6
-0.087, 4.756e-6
-0.086, 4.767e-6
-0.085, 4.769e-6
-0.084, 4.796e-6
-0.083, 4.799e-6
-0.082, 4.815e-6
-0.081, 4.828e-6
-0.080, 4.832e-6
-0.079, 4.855e-6
-0.078, 4.854e-6
-0.077, 4.875e-6
-0.076, 4.885e-6
-0.075, 4.889e-6
-0.074, 4.908e-6
-0.073, 4.907e-6
-0.072, 4.923e-6
-0.071, 4.937e-6
-0.070, 4.936e-6
-0.069, 4.956e-6
-0.068, 4.961e-6
-0.067, 4.972e-6
-0.066, 4.985e-6
-0.065, 4.986e-6
-0.064, 4.999e-6
-0.063, 5.004e-6
-0.062, 5.015e-6
-0.061, 5.025e-6
-0.060, 5.027e-6
-0.059, 5.049e-6
-0.058, 5.046e-6
-0.057, 5.061e-6
-0.056, 5.070e-6
-0.055, 5.072e-6
-0.054, 5.091e-6
-0.053, 5.087e-6
-0.052, 5.106e-6
-0.051, 5.110e-6
-0.050, 5.111e-6
-0.049, 5.132e-6
-0.048, 5.126e-6
-0.047, 5.139e-6
-0.046, 5.149e-6
-0.045, 5.146e-6
-0.044, 5.167e-6
-0.043, 5.163e-6
-0.042, 5.173e-6
-0.041, 5.186e-6
-0.040, 5.182e-6
-0.039, 5.195e-6
-0.038, 5.193e-6
-0.037, 5.205e-6
-0.036, 5.214e-6
-0.035, 5.212e-6
-0.034, 5.227e-6
-0.033, 5.224e-6
-0.032, 5.235e-6
-0.031, 5.241e-6
-0.030, 5.240e-6
-0.029, 5.251e-6
-0.028, 5.251e-6
-0.027, 5.262e-6
-0.026, 5.274e-6
-0.025, 5.266e-6
-0.024, 5.278e-6
-0.023, 5.277e-6
-0.022, 5.285e-6
-0.021, 5.287e-6
-0.020, 5.288e-6
-0.019, 5.301e-6
-0.018, 5.295e-6
-0.017, 5.303e-6
-0.016, 5.308e-6
-0.015, 5.307e-6
-0.014, 5.318e-6
-0.013, 5.306e-6
-0.012, 5.317e-6
-0.011, 5.326e-6
-0.010, 5.320e-6
-0.009, 5.332e-6
-0.008, 5.326e-6
-0.007, 5.335e-6
-0.006, 5.337e-6
-0.005, 5.333e-6
-0.004, 5.344e-6
-0.003, 5.339e-6
-0.002, 5.347e-6
-0.001, 5.349e-6
-0.000, 5.318e-6
0.001, 5.348e-6
0.002, 5.341e-6
0.003, 5.344e-6
0.004, 5.352e-6
0.005, 5.345e-6
0.006, 5.354e-6
0.007, 5.347e-6
0.008, 5.352e-6
0.009, 5.357e-6
0.010, 5.351e-6
0.011, 5.358e-6
0.012, 5.352e-6
0.013, 5.354e-6
0.014, 5.355e-6
0.015, 5.350e-6
0.016, 5.362e-6
0.017, 5.350e-6
0.018, 5.356e-6
0.019, 5.354e-6
0.020, 5.350e-6
0.021, 5.359e-6
0.022, 5.347e-6
0.023, 5.354e-6
0.024, 5.351e-6
0.025, 5.353e-6
0.026, 5.356e-6
0.027, 5.343e-6
0.028, 5.350e-6
0.029, 5.349e-6
0.030, 5.339e-6
0.031, 5.346e-6
0.032, 5.335e-6
0.033, 5.340e-6
0.034, 5.337e-6
0.035, 5.327e-6
0.036, 5.336e-6
0.037, 5.324e-6
0.038, 5.322e-6
0.039, 5.321e-6
0.040, 5.313e-6
0.041, 5.325e-6
0.042, 5.312e-6
0.043, 5.309e-6
0.044, 5.309e-6
0.045, 5.302e-6
0.046, 5.303e-6
0.047, 5.292e-6
0.048, 5.294e-6
0.049, 5.290e-6
0.050, 5.283e-6
0.051, 5.282e-6
0.052, 5.273e-6
0.053, 5.274e-6
0.054, 5.269e-6
0.055, 5.261e-6
0.056, 5.267e-6
0.057, 5.254e-6
0.058, 5.253e-6
0.059, 5.249e-6
0.060, 5.238e-6
0.061, 5.246e-6
0.062, 5.230e-6
0.063, 5.232e-6
0.064, 5.218e-6
0.065, 5.216e-6
0.066, 5.217e-6
0.067, 5.204e-6
0.068, 5.206e-6
0.069, 5.198e-6
0.070, 5.187e-6
0.071, 5.192e-6
0.072, 5.174e-6
0.073, 5.179e-6
0.074, 5.169e-6
0.075, 5.157e-6
0.076, 5.166e-6
0.077, 5.156e-6
0.078, 5.150e-6
0.079, 5.145e-6
0.080, 5.133e-6
0.081, 5.136e-6
0.082, 5.118e-6
0.083, 5.118e-6
0.084, 5.114e-6
0.085, 5.103e-6
0.086, 5.104e-6
0.087, 5.086e-6
0.088, 5.089e-6
0.089, 5.075e-6
0.090, 5.063e-6
0.091, 5.067e-6
0.092, 5.051e-6
0.093, 5.051e-6
0.094, 5.040e-6
0.095, 5.030e-6
0.096, 5.031e-6
0.097, 5.019e-6
0.098, 5.016e-6
0.099, 5.006e-6
0.100, 4.998e-6
0.101, 5.001e-6
0.102, 4.988e-6
0.103, 4.987e-6
0.104, 4.974e-6
0.105, 4.966e-6
0.106, 4.965e-6
0.107, 4.948e-6
0.108, 4.948e-6
0.109, 4.939e-6
0.110, 4.926e-6
0.111, 4.927e-6
0.112, 4.909e-6
0.113, 4.910e-6
0.114, 4.900e-6
0.115, 4.882e-6
0.116, 4.886e-6
0.117, 4.872e-6
0.118, 4.874e-6
0.119, 4.861e-6
0.120, 4.853e-6
0.121, 4.854e-6
0.122, 4.835e-6
0.123, 4.833e-6
0.124, 4.824e-6
0.125, 4.812e-6
0.126, 4.813e-6
0.127, 4.796e-6
0.128, 4.804e-6
0.129, 4.788e-6
0.130, 4.776e-6
0.131, 4.775e-6
0.132, 4.759e-6
0.133, 4.758e-6
0.134, 4.749e-6
0.135, 4.740e-6
0.136, 4.737e-6
0.137, 4.721e-6
0.138, 4.721e-6
0.139, 4.710e-6
0.140, 4.698e-6
0.141, 4.694e-6
0.142, 4.680e-6
0.143, 4.682e-6
0.144, 4.671e-6
0.145, 4.660e-6
0.146, 4.661e-6
0.147, 4.643e-6
0.148, 4.644e-6
0.149, 4.638e-6
0.150, 4.623e-6
0.151, 4.624e-6
0.152, 4.609e-6
0.153, 4.607e-6
0.154, 4.598e-6
0.155, 4.585e-6
0.156, 4.587e-6
0.157, 4.568e-6
0.158, 4.572e-6
0.159, 4.559e-6
0.160, 4.547e-6
0.161, 4.551e-6
0.162, 4.533e-6
0.163, 4.535e-6
0.164, 4.527e-6
0.165, 4.519e-6
0.166, 4.514e-6
0.167, 4.498e-6
0.168, 4.503e-6
0.169, 4.495e-6
0.170, 4.483e-6
0.171, 4.485e-6
0.172, 4.469e-6
0.173, 4.473e-6
0.174, 4.461e-6
0.175, 4.451e-6
0.176, 4.454e-6
0.177, 4.438e-6
0.178, 4.441e-6
0.179, 4.439e-6
0.180, 4.425e-6
0.181, 4.429e-6
0.182, 4.411e-6
0.183, 4.416e-6
0.184, 4.408e-6
0.185, 4.402e-6
0.186, 4.403e-6
0.187, 4.386e-6
0.188, 4.391e-6
0.189, 4.386e-6
0.190, 4.375e-6
0.191, 4.381e-6
0.192, 4.360e-6
0.193, 4.369e-6
0.194, 4.362e-6
0.195, 4.353e-6
0.196, 4.360e-6
0.197, 4.345e-6
0.198, 4.347e-6
0.199, 4.342e-6
0.200, 4.335e-6
0.201, 4.341e-6
0.202, 4.329e-6
0.203, 4.333e-6
0.204, 4.325e-6
0.205, 4.311e-6
0.206, 4.324e-6
0.207, 4.310e-6
0.208, 4.316e-6
0.209, 4.315e-6
0.210, 4.309e-6
0.211, 4.312e-6
0.212, 4.305e-6
0.213, 4.311e-6
0.214, 4.304e-6
0.215, 4.303e-6
0.216, 4.310e-6
0.217, 4.298e-6
0.218, 4.305e-6
0.219, 4.302e-6
0.220, 4.299e-6
0.221, 4.307e-6
0.222, 4.299e-6
0.223, 4.305e-6
0.224, 4.303e-6
0.225, 4.303e-6
0.226, 4.313e-6
0.227, 4.303e-6
0.228, 4.312e-6
0.229, 4.310e-6
0.230, 4.314e-6
0.231, 4.322e-6
0.232, 4.313e-6
0.233, 4.326e-6
0.234, 4.325e-6
0.235, 4.325e-6
0.236, 4.338e-6
0.237, 4.331e-6
0.238, 4.344e-6
0.239, 4.342e-6
0.240, 4.344e-6
0.241, 4.359e-6
0.242, 4.355e-6
0.243, 4.361e-6
0.244, 4.367e-6
0.245, 4.372e-6
0.246, 4.383e-6
0.247, 4.382e-6
0.248, 4.400e-6
0.249, 4.399e-6
0.250, 4.405e-6
0.251, 4.417e-6
0.252, 4.421e-6
0.253, 4.438e-6
0.254, 4.437e-6
0.255, 4.449e-6
0.256, 4.464e-6
0.257, 4.470e-6
0.258, 4.489e-6
0.259, 4.491e-6
0.260, 4.506e-6
0.261, 4.524e-6
0.262, 4.524e-6
0.263, 4.547e-6
0.264, 4.556e-6
0.265, 4.574e-6
0.266, 4.592e-6
0.267, 4.596e-6
0.268, 4.624e-6
0.269, 4.629e-6
0.270, 4.647e-6
0.271, 4.673e-6
0.272, 4.680e-6
0.273, 4.712e-6
0.274, 4.722e-6
0.275, 4.743e-6
0.276, 4.769e-6
0.277, 4.781e-6
0.278, 4.814e-6
0.279, 4.829e-6
0.280, 4.858e-6
0.281, 4.891e-6
0.282, 4.904e-6
0.283, 4.941e-6
0.284, 4.960e-6
0.285, 4.993e-6
0.286, 5.019e-6
0.287, 5.042e-6
0.288, 5.086e-6
0.289, 5.112e-6
0.290, 5.152e-6
0.291, 5.181e-6
0.292, 5.213e-6
0.293, 5.261e-6
0.294, 5.278e-6
0.295, 5.325e-6
0.296, 5.371e-6
0.297, 5.404e-6
0.298, 5.462e-6
0.299, 5.492e-6
0.300, 5.549e-6
0.301, 5.597e-6
0.302, 5.637e-6
0.303, 5.706e-6
0.304, 5.745e-6
0.305, 5.813e-6
0.306, 5.864e-6
0.307, 5.926e-6
0.308, 5.998e-6
0.309, 6.050e-6
0.310, 6.125e-6
0.311, 6.191e-6
0.312, 6.250e-6
0.313, 6.344e-6
0.314, 6.401e-6
0.315, 6.490e-6
0.316, 6.564e-6
0.317, 6.647e-6
0.318, 6.753e-6
0.319, 6.825e-6
0.320, 6.920e-6
0.321, 7.020e-6
0.322, 7.118e-6
0.323, 7.232e-6
0.324, 7.325e-6
0.325, 7.472e-6
0.326, 7.575e-6
0.327, 7.691e-6
0.328, 7.835e-6
0.329, 7.944e-6
0.330, 8.114e-6
0.331, 8.228e-6
0.332, 8.382e-6
0.333, 8.586e-6
0.334, 8.695e-6
0.335, 8.876e-6
0.336, 9.026e-6
0.337, 9.208e-6
0.338, 9.413e-6
0.339, 9.550e-6
0.340, 9.791e-6
0.341, 9.976e-6
0.342, 1.017e-5
0.343, 1.042e-5
0.344, 1.059e-5
0.345, 1.086e-5
0.346, 1.107e-5
0.347, 1.132e-5
0.348, 1.161e-5
0.349, 1.183e-5
0.350, 1.215e-5
0.351, 1.241e-5
0.352, 1.270e-5
0.353, 1.306e-5
0.354, 1.331e-5
0.355, 1.368e-5
0.356, 1.401e-5
0.357, 1.437e-5
0.358, 1.474e-5
0.359, 1.506e-5
0.360, 1.551e-5
0.361, 1.588e-5
0.362, 1.631e-5
0.363, 1.676e-5
0.364, 1.715e-5
0.365, 1.769e-5
0.366, 1.810e-5
0.367, 1.861e-5
0.368, 1.916e-5
0.369, 1.960e-5
0.370, 2.026e-5
0.371, 2.064e-5
0.372, 2.125e-5
0.373, 2.190e-5
0.374, 2.242e-5
0.375, 2.321e-5
0.376, 2.372e-5
0.377, 2.450e-5
0.378, 2.517e-5
0.379, 2.576e-5
0.380, 2.666e-5
0.381, 2.729e-5
0.382, 2.810e-5
0.383, 2.896e-5
0.384, 2.977e-5
0.385, 3.075e-5
0.386, 3.146e-5
0.387, 3.235e-5
0.388, 3.332e-5
0.389, 3.411e-5
0.390, 3.526e-5
0.391, 3.603e-5
0.392, 3.707e-5
0.393, 3.819e-5
0.394, 3.909e-5
0.395, 4.038e-5
0.396, 4.126e-5
0.397, 4.225e-5
0.398, 4.357e-5
0.399, 4.460e-5
0.400, 4.602e-5
0.401, 4.701e-5
0.402, 4.838e-5
0.403, 4.951e-5
0.404, 5.060e-5
0.405, 5.231e-5
0.406, 5.325e-5
0.407, 5.483e-5
0.408, 5.622e-5
0.409, 5.705e-5
0.410, 5.789e-5
0.411, 5.942e-5
0.412, 6.132e-5
0.413, 6.260e-5
0.414, 6.393e-5
0.415, 6.589e-5
0.416, 6.683e-5
0.417, 6.866e-5
0.418, 6.997e-5
0.419, 7.115e-5
0.420, 7.311e-5
0.421, 7.407e-5
0.422, 7.573e-5
0.423, 7.698e-5
0.424, 7.825e-5
0.425, 8.027e-5
0.426, 8.118e-5
0.427, 8.289e-5
0.428, 8.424e-5
0.429, 8.536e-5
0.430, 8.724e-5
0.431, 8.803e-5
0.432, 8.958e-5
0.433, 9.091e-5
0.434, 9.194e-5
0.435, 9.399e-5
0.436, 9.457e-5
0.437, 9.606e-5
0.438, 9.703e-5
0.439, 9.802e-5
0.440, 9.940e-5
0.441, 9.999e-5
0.442, 1.014e-4
0.443, 1.022e-4
0.444, 1.030e-4
0.445, 1.043e-4
0.446, 1.047e-4
0.447, 1.060e-4
0.448, 1.060e-4
0.449, 1.071e-4
0.450, 1.081e-4
0.451, 1.082e-4
0.452, 1.093e-4
0.453, 1.097e-4
0.454, 1.101e-4
0.455, 1.110e-4
0.456, 1.108e-4
0.457, 1.117e-4
0.458, 1.120e-4
0.459, 1.121e-4
0.460, 1.128e-4
0.461, 1.124e-4
0.462, 1.131e-4
0.463, 1.132e-4
0.464, 1.130e-4
0.465, 1.135e-4
0.466, 1.132e-4
0.467, 1.135e-4
0.468, 1.134e-4
0.469, 1.132e-4
0.470, 1.134e-4
0.471, 1.131e-4
0.472, 1.130e-4
0.473, 1.128e-4
0.474, 1.123e-4
0.475, 1.125e-4
0.476, 1.120e-4
0.477, 1.120e-4
0.478, 1.116e-4
0.479, 1.112e-4
0.480, 1.111e-4
0.481, 1.105e-4
0.482, 1.103e-4
0.483, 1.099e-4
0.484, 1.095e-4
0.485, 1.092e-4
0.486, 1.087e-4
0.487, 1.084e-4
0.488, 1.079e-4
0.489, 1.073e-4
0.490, 1.070e-4
0.491, 1.063e-4
0.492, 1.059e-4
0.493, 1.054e-4
0.494, 1.048e-4
0.495, 1.044e-4
0.496, 1.037e-4
0.497, 1.034e-4
0.498, 1.028e-4
0.499, 1.021e-4
0.500, 1.017e-4
0.501, 1.011e-4
0.502, 1.006e-4
0.503, 1.001e-4
0.504, 9.945e-5
0.505, 9.905e-5
0.506, 9.838e-5
0.507, 9.791e-5
0.508, 9.737e-5
0.509, 9.680e-5
0.510, 9.635e-5
0.511, 9.570e-5
0.512, 9.528e-5
0.513, 9.472e-5
0.514, 9.415e-5
0.515, 9.370e-5
0.516, 9.311e-5
0.517, 9.261e-5
0.518, 9.210e-5
0.519, 9.154e-5
0.520, 9.110e-5
0.521, 9.054e-5
0.522, 9.007e-5
0.523, 8.957e-5
0.524, 8.907e-5
0.525, 8.859e-5
0.526, 8.808e-5
0.527, 8.765e-5
0.528, 8.715e-5
0.529, 8.667e-5
0.530, 8.626e-5
0.531, 8.574e-5
0.532, 8.535e-5
0.533, 8.490e-5
0.534, 8.442e-5
0.535, 8.403e-5
0.536, 8.356e-5
0.537, 8.317e-5
0.538, 8.276e-5
0.539, 8.230e-5
0.540, 8.193e-5
0.541, 8.150e-5
0.542, 8.110e-5
0.543, 8.071e-5
0.544, 8.029e-5
0.545, 7.994e-5
0.546, 7.952e-5
0.547, 7.917e-5
0.548, 7.880e-5
0.549, 7.842e-5
0.550, 7.805e-5
0.551, 7.767e-5
0.552, 7.733e-5
0.553, 7.700e-5
0.554, 7.663e-5
0.555, 7.631e-5
0.556, 7.597e-5
0.557, 7.564e-5
0.558, 7.531e-5
0.559, 7.498e-5
0.560, 7.468e-5
0.561, 7.435e-5
0.562, 7.404e-5
0.563, 7.374e-5
0.564, 7.342e-5
0.565, 7.315e-5
0.566, 7.283e-5
0.567, 7.255e-5
0.568, 7.227e-5
0.569, 7.197e-5
0.570, 7.171e-5
0.571, 7.142e-5
0.572, 7.115e-5
0.573, 7.088e-5
0.574, 7.060e-5
0.575, 7.035e-5
0.576, 7.007e-5
0.577, 6.982e-5
0.578, 6.958e-5
0.579, 6.931e-5
0.580, 6.908e-5
0.581, 6.883e-5
0.582, 6.858e-5
0.583, 6.836e-5
0.584, 6.811e-5
0.585, 6.790e-5
0.586, 6.766e-5
0.587, 6.742e-5
0.588, 6.721e-5
0.589, 6.698e-5
0.590, 6.677e-5
0.591, 6.655e-5
0.592, 6.634e-5
0.593, 6.613e-5
0.594, 6.591e-5
0.595, 6.571e-5
0.596, 6.550e-5
0.597, 6.531e-5
0.598, 6.511e-5
0.599, 6.491e-5
0.600, 6.473e-5
0.601, 6.452e-5
0.602, 6.433e-5
0.603, 6.416e-5
0.604, 6.396e-5
0.605, 6.379e-5
0.606, 6.359e-5
0.607, 6.342e-5
0.608, 6.325e-5
0.609, 6.307e-5
0.610, 6.291e-5
0.611, 6.272e-5
0.612, 6.256e-5
0.613, 6.240e-5
0.614, 6.219e-5
0.615, 6.206e-5
0.616, 6.189e-5
0.617, 6.174e-5
0.618, 6.158e-5
0.619, 6.141e-5
0.620, 6.127e-5
0.621, 6.111e-5
0.622, 6.096e-5
0.623, 6.082e-5
0.624, 6.066e-5
0.625, 6.052e-5
0.626, 6.037e-5
0.627, 6.022e-5
0.628, 6.009e-5
0.629, 5.994e-5
0.630, 5.981e-5
0.631, 5.967e-5
0.632, 5.953e-5
0.633, 5.941e-5
0.634, 5.926e-5
0.635, 5.913e-5
0.636, 5.900e-5
0.637, 5.887e-5
0.638, 5.875e-5
0.639, 5.861e-5
0.640, 5.851e-5
0.641, 5.837e-5
0.642, 5.824e-5
0.643, 5.813e-5
0.644, 5.800e-5
0.645, 5.789e-5
0.646, 5.776e-5
0.647, 5.764e-5
0.648, 5.754e-5
0.649, 5.741e-5
0.650, 5.731e-5
0.651, 5.718e-5
0.652, 5.708e-5
0.653, 5.697e-5
0.654, 5.685e-5
0.655, 5.676e-5
0.656, 5.663e-5
0.657, 5.654e-5
0.658, 5.643e-5
0.659, 5.631e-5
0.660, 5.623e-5
0.661, 5.611e-5
0.662, 5.601e-5
0.663, 5.592e-5
0.664, 5.581e-5
0.665, 5.572e-5
0.666, 5.561e-5
0.667, 5.551e-5
0.668, 5.542e-5
0.669, 5.532e-5
0.670, 5.523e-5
0.671, 5.513e-5
0.672, 5.504e-5
0.673, 5.495e-5
0.674, 5.485e-5
0.675, 5.477e-5
0.676, 5.467e-5
0.677, 5.459e-5
0.678, 5.449e-5
0.679, 5.439e-5
0.680, 5.432e-5
0.681, 5.422e-5
0.682, 5.414e-5
0.683, 5.406e-5
0.684, 5.396e-5
0.685, 5.390e-5
0.686, 5.380e-5
0.687, 5.372e-5
0.688, 5.365e-5
0.689, 5.355e-5
0.690, 5.349e-5
0.691, 5.341e-5
0.692, 5.333e-5
0.693, 5.325e-5
0.694, 5.316e-5
0.695, 5.310e-5
0.696, 5.301e-5
0.697, 5.294e-5
0.698, 5.287e-5
0.699, 5.278e-5
0.700, 5.273e-5
0.701, 5.264e-5
0.702, 5.257e-5
0.703, 5.250e-5
0.704, 5.241e-5
0.705, 5.236e-5
0.706, 5.228e-5
0.707, 5.221e-5
0.708, 5.215e-5
0.709, 5.207e-5
0.710, 5.201e-5
0.711, 5.193e-5
0.712, 5.187e-5
0.713, 5.181e-5
0.714, 5.173e-5
0.715, 5.168e-5
0.716, 5.160e-5
0.717, 5.155e-5
0.718, 5.148e-5
0.719, 5.141e-5
0.720, 5.136e-5
0.721, 5.128e-5
0.722, 5.123e-5
0.723, 5.116e-5
0.724, 5.109e-5
0.725, 5.105e-5
0.726, 5.097e-5
0.727, 5.092e-5
0.728, 5.086e-5
0.729, 5.078e-5
0.730, 5.074e-5
0.731, 5.067e-5
0.732, 5.062e-5
0.733, 5.056e-5
0.734, 5.049e-5
0.735, 5.045e-5
0.736, 5.038e-5
0.737, 5.033e-5
0.738, 5.028e-5
0.739, 5.021e-5
0.740, 5.018e-5
0.741, 5.010e-5
0.742, 5.007e-5
0.743, 5.001e-5
0.744, 4.994e-5
0.745, 4.992e-5
0.746, 4.984e-5
0.747, 4.980e-5
0.748, 4.975e-5
0.749, 4.970e-5
0.750, 4.966e-5
0.751, 4.959e-5
0.752, 4.955e-5
0.753, 4.951e-5
0.754, 4.945e-5
0.755, 4.941e-5
0.756, 4.935e-5
0.757, 4.932e-5
0.758, 4.926e-5
0.759, 4.921e-5
0.760, 4.918e-5
0.761, 4.912e-5
0.762, 4.908e-5
0.763, 4.904e-5
0.764, 4.899e-5
0.765, 4.897e-5
0.766, 4.890e-5
0.767, 4.888e-5
0.768, 4.883e-5
0.769, 4.879e-5
0.770, 4.876e-5
0.771, 4.870e-5
0.772, 4.868e-5
0.773, 4.865e-5
0.774, 4.859e-5
0.775, 4.858e-5
0.776, 4.852e-5
0.777, 4.850e-5
0.778, 4.847e-5
0.779, 4.841e-5
0.780, 4.841e-5
0.781, 4.835e-5
0.782, 4.833e-5
0.783, 4.830e-5
0.784, 4.827e-5
0.785, 4.826e-5
0.786, 4.821e-5
0.787, 4.818e-5
0.788, 4.816e-5
0.789, 4.813e-5
0.790, 4.811e-5
0.791, 4.807e-5
0.792, 4.807e-5
0.793, 4.805e-5
0.794, 4.802e-5
0.795, 4.801e-5
0.796, 4.797e-5
0.797, 4.797e-5
0.798, 4.794e-5
0.799, 4.792e-5
0.800, 4.792e-5
0.801, 4.789e-5
0.802, 4.789e-5
0.803, 4.787e-5
0.804, 4.786e-5
0.805, 4.787e-5
0.806, 4.782e-5
0.807, 4.784e-5
0.808, 4.783e-5
0.809, 4.782e-5
0.810, 4.784e-5
0.811, 4.782e-5
0.812, 4.783e-5
0.813, 4.782e-5
0.814, 4.782e-5
0.815, 4.784e-5
0.816, 4.782e-5
0.817, 4.785e-5
0.818, 4.785e-5
0.819, 4.779e-5
0.820, 4.786e-5
0.821, 4.786e-5
0.822, 4.789e-5
0.823, 4.790e-5
0.824, 4.791e-5
0.825, 4.796e-5
0.826, 4.796e-5
0.827, 4.800e-5
0.828, 4.802e-5
0.829, 4.805e-5
0.830, 4.808e-5
0.831, 4.810e-5
0.832, 4.813e-5
0.833, 4.817e-5
0.834, 4.820e-5
0.835, 4.825e-5
0.836, 4.827e-5
0.837, 4.834e-5
0.838, 4.836e-5
0.839, 4.840e-5
0.840, 4.847e-5
0.841, 4.849e-5
0.842, 4.857e-5
0.843, 4.860e-5
0.844, 4.865e-5
0.845, 4.876e-5
0.846, 4.876e-5
0.847, 4.884e-5
0.848, 4.887e-5
0.849, 4.895e-5
0.850, 4.903e-5
0.851, 4.904e-5
0.852, 4.914e-5
0.853, 4.919e-5
0.854, 4.926e-5
0.855, 4.934e-5
0.856, 4.937e-5
0.857, 4.948e-5
0.858, 4.951e-5
0.859, 4.957e-5
0.860, 4.969e-5
0.861, 4.972e-5
0.862, 4.983e-5
0.863, 4.987e-5
0.864, 4.995e-5
0.865, 5.005e-5
0.866, 5.007e-5
0.867, 5.020e-5
0.868, 5.024e-5
0.869, 5.034e-5
0.870, 5.040e-5
0.871, 5.044e-5
0.872, 5.057e-5
0.873, 5.062e-5
0.874, 5.070e-5
0.875, 5.077e-5
0.876, 5.082e-5
0.877, 5.092e-5
0.878, 5.095e-5
0.879, 5.103e-5
0.880, 5.110e-5
0.881, 5.116e-5
0.882, 5.127e-5
0.883, 5.126e-5
0.884, 5.135e-5
0.885, 5.143e-5
0.886, 5.145e-5
0.887, 5.155e-5
0.888, 5.156e-5
0.889, 5.164e-5
0.890, 5.170e-5
0.891, 5.170e-5
0.892, 5.180e-5
0.893, 5.181e-5
0.894, 5.186e-5
0.895, 5.191e-5
0.896, 5.195e-5
0.897, 5.200e-5
0.898, 5.199e-5
0.899, 5.203e-5
0.900, 5.051e-5
0.899, 4.880e-5
0.898, 4.796e-5
0.897, 4.724e-5
0.896, 4.662e-5
0.895, 4.616e-5
0.894, 4.567e-5
0.893, 4.532e-5
0.892, 4.486e-5
0.891, 4.453e-5
0.890, 4.422e-5
0.889, 4.384e-5
0.888, 4.358e-5
0.887, 4.324e-5
0.886, 4.300e-5
0.885, 4.274e-5
0.884, 4.244e-5
0.883, 4.225e-5
0.882, 4.197e-5
0.881, 4.177e-5
0.880, 4.155e-5
0.879, 4.131e-5
0.878, 4.114e-5
0.877, 4.093e-5
0.876, 4.074e-5
0.875, 4.056e-5
0.874, 4.036e-5
0.873, 4.023e-5
0.872, 4.003e-5
0.871, 3.989e-5
0.870, 3.975e-5
0.869, 3.957e-5
0.868, 3.945e-5
0.867, 3.929e-5
0.866, 3.917e-5
0.865, 3.905e-5
0.864, 3.892e-5
0.863, 3.881e-5
0.862, 3.867e-5
0.861, 3.858e-5
0.860, 3.847e-5
0.859, 3.835e-5
0.858, 3.832e-5
0.857, 3.817e-5
0.856, 3.810e-5
0.855, 3.801e-5
0.854, 3.790e-5
0.853, 3.786e-5
0.852, 3.774e-5
0.851, 3.768e-5
0.850, 3.763e-5
0.849, 3.753e-5
0.848, 3.751e-5
0.847, 3.740e-5
0.846, 3.736e-5
0.845, 3.728e-5
0.844, 3.721e-5
0.843, 3.718e-5
0.842, 3.711e-5
0.841, 3.707e-5
0.840, 3.704e-5
0.839, 3.696e-5
0.838, 3.695e-5
0.837, 3.689e-5
0.836, 3.686e-5
0.835, 3.682e-5
0.834, 3.677e-5
0.833, 3.676e-5
0.832, 3.672e-5
0.831, 3.668e-5
0.830, 3.666e-5
0.829, 3.660e-5
0.828, 3.660e-5
0.827, 3.655e-5
0.826, 3.653e-5
0.825, 3.651e-5
0.824, 3.645e-5
0.823, 3.646e-5
0.822, 3.641e-5
0.821, 3.640e-5
0.820, 3.640e-5
0.819, 3.637e-5
0.818, 3.635e-5
0.817, 3.631e-5
0.816, 3.629e-5
0.815, 3.628e-5
0.814, 3.624e-5
0.813, 3.624e-5
0.812, 3.620e-5
0.811, 3.619e-5
0.810, 3.618e-5
0.809, 3.615e-5
0.808, 3.614e-5
0.807, 3.612e-5
0.806, 3.611e-5
0.805, 3.610e-5
0.804, 3.606e-5
0.803, 3.606e-5
0.802, 3.604e-5
0.801, 3.602e-5
0.800, 3.601e-5
0.799, 3.597e-5
0.798, 3.598e-5
0.797, 3.595e-5
0.796, 3.594e-5
0.795, 3.593e-5
0.794, 3.589e-5
0.793, 3.589e-5
0.792, 3.587e-5
0.791, 3.586e-5
0.790, 3.585e-5
0.789, 3.582e-5
0.788, 3.582e-5
0.787, 3.580e-5
0.786, 3.578e-5
0.785, 3.577e-5
0.784, 3.574e-5
0.783, 3.574e-5
0.782, 3.572e-5
0.781, 3.571e-5
0.780, 3.570e-5
0.779, 3.567e-5
0.778, 3.568e-5
0.777, 3.565e-5
0.776, 3.563e-5
0.775, 3.563e-5
0.774, 3.559e-5
0.773, 3.560e-5
0.772, 3.557e-5
0.771, 3.555e-5
0.770, 3.555e-5
0.769, 3.552e-5
0.768, 3.552e-5
0.767, 3.549e-5
0.766, 3.547e-5
0.765, 3.546e-5
0.764, 3.544e-5
0.763, 3.544e-5
0.762, 3.542e-5
0.761, 3.540e-5
0.760, 3.539e-5
0.759, 3.536e-5
0.758, 3.536e-5
0.757, 3.533e-5
0.756, 3.532e-5
0.755, 3.531e-5
0.754, 3.528e-5
0.753, 3.528e-5
0.752, 3.525e-5
0.751, 3.524e-5
0.750, 3.523e-5
0.749, 3.520e-5
0.748, 3.520e-5
0.747, 3.517e-5
0.746, 3.516e-5
0.745, 3.515e-5
0.744, 3.512e-5
0.743, 3.511e-5
0.742, 3.508e-5
0.741, 3.507e-5
0.740, 3.506e-5
0.739, 3.503e-5
0.738, 3.503e-5
0.737, 3.500e-5
0.736, 3.499e-5
0.735, 3.497e-5
0.734, 3.494e-5
0.733, 3.494e-5
0.732, 3.491e-5
0.731, 3.490e-5
0.730, 3.490e-5
0.729, 3.486e-5
0.728, 3.486e-5
0.727, 3.483e-5
0.726, 3.481e-5
0.725, 3.481e-5
0.724, 3.477e-5
0.723, 3.477e-5
0.722, 3.474e-5
0.721, 3.473e-5
0.720, 3.472e-5
0.719, 3.469e-5
0.718, 3.469e-5
0.717, 3.465e-5
0.716, 3.464e-5
0.715, 3.463e-5
0.714, 3.460e-5
0.713, 3.460e-5
0.712, 3.457e-5
0.711, 3.456e-5
0.710, 3.455e-5
0.709, 3.452e-5
0.708, 3.451e-5
0.707, 3.449e-5
0.706, 3.448e-5
0.705, 3.446e-5
0.704, 3.445e-5
0.703, 3.444e-5
0.702, 3.441e-5
0.701, 3.440e-5
0.700, 3.438e-5
0.699, 3.436e-5
0.698, 3.436e-5
0.697, 3.433e-5
0.696, 3.431e-5
0.695, 3.430e-5
0.694, 3.427e-5
0.693, 3.427e-5
0.692, 3.424e-5
0.691, 3.423e-5
0.690, 3.423e-5
0.689, 3.419e-5
0.688, 3.419e-5
0.687, 3.417e-5
0.686, 3.416e-5
0.685, 3.414e-5
0.684, 3.411e-5
0.683, 3.411e-5
0.682, 3.409e-5
0.681, 3.408e-5
0.680, 3.406e-5
0.679, 3.404e-5
0.678, 3.404e-5
0.677, 3.401e-5
0.676, 3.400e-5
0.675, 3.399e-5
0.674, 3.396e-5
0.673, 3.396e-5
0.672, 3.393e-5
0.671, 3.392e-5
0.670, 3.391e-5
0.669, 3.388e-5
0.668, 3.388e-5
0.667, 3.385e-5
0.666, 3.385e-5
0.665, 3.383e-5
0.664, 3.380e-5
0.663, 3.380e-5
0.662, 3.377e-5
0.661, 3.376e-5
0.660, 3.375e-5
0.659, 3.372e-5
0.658, 3.373e-5
0.657, 3.369e-5
0.656, 3.368e-5
0.655, 3.367e-5
0.654, 3.364e-5
0.653, 3.365e-5
0.652, 3.361e-5
0.651, 3.360e-5
0.650, 3.359e-5
0.649, 3.356e-5
0.648, 3.356e-5
0.647, 3.353e-5
0.646, 3.352e-5
0.645, 3.351e-5
0.644, 3.348e-5
0.643, 3.347e-5
0.642, 3.345e-5
0.641, 3.343e-5
0.640, 3.341e-5
0.639, 3.339e-5
0.638, 3.339e-5
0.637, 3.336e-5
0.636, 3.334e-5
0.635, 3.332e-5
0.634, 3.330e-5
0.633, 3.329e-5
0.632, 3.326e-5
0.631, 3.325e-5
0.630, 3.324e-5
0.629, 3.321e-5
0.628, 3.321e-5
0.627, 3.317e-5
0.626, 3.316e-5
0.625, 3.314e-5
0.624, 3.311e-5
0.623, 3.310e-5
0.622, 3.307e-5
0.621, 3.306e-5
0.620, 3.303e-5
0.619, 3.301e-5
0.618, 3.300e-5
0.617, 3.297e-5
0.616, 3.295e-5
0.615, 3.295e-5
0.614, 3.291e-5
0.613, 3.290e-5
0.612, 3.285e-5
0.611, 3.284e-5
0.610, 3.281e-5
0.609, 3.278e-5
0.608, 3.277e-5
0.607, 3.273e-5
0.606, 3.271e-5
0.605, 3.269e-5
0.604, 3.265e-5
0.603, 3.264e-5
0.602, 3.261e-5
0.601, 3.258e-5
0.600, 3.254e-5
0.599, 3.251e-5
0.598, 3.249e-5
0.597, 3.244e-5
0.596, 3.242e-5
0.595, 3.239e-5
0.594, 3.235e-5
0.593, 3.232e-5
0.592, 3.227e-5
0.591, 3.225e-5
0.590, 3.221e-5
0.589, 3.215e-5
0.588, 3.213e-5
0.587, 3.208e-5
0.586, 3.205e-5
0.585, 3.201e-5
0.584, 3.195e-5
0.583, 3.192e-5
0.582, 3.186e-5
0.581, 3.183e-5
0.580, 3.178e-5
0.579, 3.172e-5
0.578, 3.169e-5
0.577, 3.161e-5
0.576, 3.159e-5
0.575, 3.152e-5
0.574, 3.145e-5
0.573, 3.141e-5
0.572, 3.133e-5
0.571, 3.128e-5
0.570, 3.122e-5
0.569, 3.113e-5
0.568, 3.108e-5
0.567, 3.099e-5
0.566, 3.093e-5
0.565, 3.084e-5
0.564, 3.077e-5
0.563, 3.070e-5
0.562, 3.060e-5
0.561, 3.053e-5
0.560, 3.042e-5
0.559, 3.033e-5
0.558, 3.025e-5
0.557, 3.013e-5
0.556, 3.005e-5
0.555, 2.993e-5
0.554, 2.983e-5
0.553, 2.972e-5
0.552, 2.958e-5
0.551, 2.950e-5
0.550, 2.936e-5
0.549, 2.923e-5
0.548, 2.911e-5
0.547, 2.894e-5
0.546, 2.883e-5
0.545, 2.866e-5
0.544, 2.851e-5
0.543, 2.836e-5
0.542, 2.817e-5
0.541, 2.804e-5
0.540, 2.783e-5
0.539, 2.766e-5
0.538, 2.746e-5
0.537, 2.722e-5
0.536, 2.707e-5
0.535, 2.685e-5
0.534, 2.665e-5
0.533, 2.644e-5
0.532, 2.617e-5
0.531, 2.598e-5
0.530, 2.568e-5
0.529, 2.544e-5
0.528, 2.518e-5
0.527, 2.487e-5
0.526, 2.464e-5
0.525, 2.435e-5
0.524, 2.403e-5
0.523, 2.372e-5
0.522, 2.335e-5
0.521, 2.306e-5
0.520, 2.266e-5
0.519, 2.232e-5
0.518, 2.195e-5
0.517, 2.153e-5
0.516, 2.120e-5
0.515, 2.071e-5
0.514, 2.033e-5
0.513, 1.987e-5
0.512, 1.931e-5
0.511, 1.892e-5
0.510, 1.836e-5
0.509, 1.795e-5
0.508, 1.740e-5
0.507, 1.679e-5
0.506, 1.635e-5
0.505, 1.569e-5
0.504, 1.516e-5
0.503, 1.451e-5
0.502, 1.382e-5
0.501, 1.333e-5
0.500, 1.249e-5
0.499, 1.203e-5
0.498, 1.123e-5
0.497, 1.043e-5
0.496, 9.813e-6
0.495, 8.877e-6
0.494, 8.189e-6
0.493, 7.372e-6
0.492, 6.447e-6
0.491, 5.713e-6
0.490, 4.649e-6
0.489, 3.917e-6
0.488, 2.968e-6
0.487, 1.743e-6
0.486, 9.174e-7
0.485, -2.159e-7
0.484, -1.072e-6
0.483, -2.239e-6
0.482, -3.342e-6
0.481, -4.246e-6
0.480, -5.538e-6
0.479, -6.570e-6
0.478, -7.760e-6
0.477, -9.048e-6
0.476, -1.010e-5
0.475, -1.164e-5
0.474, -1.243e-5
0.473, -1.383e-5
0.472, -1.517e-5
0.471, -1.640e-5
0.470, -1.805e-5
0.469, -1.905e-5
0.468, -2.061e-5
0.467, -2.202e-5
0.466, -2.326e-5
0.465, -2.512e-5
0.464, -2.612e-5
0.463, -2.784e-5
0.462, -2.930e-5
0.461, -3.028e-5
0.460, -3.230e-5
0.459, -3.335e-5
0.458, -3.509e-5
0.457, -3.660e-5
0.456, -3.777e-5
0.455, -3.976e-5
0.454, -4.069e-5
0.453, -4.244e-5
0.452, -4.392e-5
0.451, -4.514e-5
0.450, -4.711e-5
0.449, -4.796e-5
0.448, -4.928e-5
0.447, -5.095e-5
0.446, -5.191e-5
0.445, -5.375e-5
0.444, -5.470e-5
0.443, -5.633e-5
0.442, -5.756e-5
0.441, -5.859e-5
0.440, -6.027e-5
0.439, -6.102e-5
0.438, -6.255e-5
0.437, -6.347e-5
0.436, -6.453e-5
0.435, -6.642e-5
0.434, -6.664e-5
0.433, -6.793e-5
0.432, -6.873e-5
0.431, -6.948e-5
0.430, -7.073e-5
0.429, -7.102e-5
0.428, -7.226e-5
0.427, -7.280e-5
0.426, -7.322e-5
0.425, -7.439e-5
0.424, -7.438e-5
0.423, -7.535e-5
0.422, -7.554e-5
0.421, -7.590e-5
0.420, -7.683e-5
0.419, -7.670e-5
0.418, -7.744e-5
0.417, -7.768e-5
0.416, -7.770e-5
0.415, -7.842e-5
0.414, -7.811e-5
0.413, -7.851e-5
0.412, -7.864e-5
0.411, -7.857e-5
0.410, -7.799e-5
0.409, -7.791e-5
0.408, -7.827e-5
0.407, -7.840e-5
0.406, -7.815e-5
0.405, -7.832e-5
0.404, -7.793e-5
0.403, -7.798e-5
0.402, -7.772e-5
0.401, -7.740e-5
0.400, -7.743e-5
0.399, -7.695e-5
0.398, -7.680e-5
0.397, -7.623e-5
0.396, -7.590e-5
0.395, -7.581e-5
0.394, -7.521e-5
0.393, -7.494e-5
0.392, -7.452e-5
0.391, -7.402e-5
0.390, -7.373e-5
0.389, -7.313e-5
0.388, -7.280e-5
0.387, -7.235e-5
0.386, -7.176e-5
0.385, -7.144e-5
0.384, -7.096e-5
0.383, -7.050e-5
0.382, -6.993e-5
0.381, -6.928e-5
0.380, -6.893e-5
0.379, -6.824e-5
0.378, -6.779e-5
0.377, -6.725e-5
0.376, -6.665e-5
0.375, -6.623e-5
0.374, -6.557e-5
0.373, -6.507e-5
0.372, -6.454e-5
0.371, -6.385e-5
0.370, -6.345e-5
0.369, -6.283e-5
0.368, -6.233e-5
0.367, -6.181e-5
0.366, -6.123e-5
0.365, -6.075e-5
0.364, -6.016e-5
0.363, -5.967e-5
0.362, -5.915e-5
0.361, -5.856e-5
0.360, -5.812e-5
0.359, -5.752e-5
0.358, -5.703e-5
0.357, -5.653e-5
0.356, -5.600e-5
0.355, -5.555e-5
0.354, -5.498e-5
0.353, -5.452e-5
0.352, -5.402e-5
0.351, -5.350e-5
0.350, -5.307e-5
0.349, -5.254e-5
0.348, -5.210e-5
0.347, -5.164e-5
0.346, -5.111e-5
0.345, -5.071e-5
0.344, -5.023e-5
0.343, -4.980e-5
0.342, -4.937e-5
0.341, -4.891e-5
0.340, -4.852e-5
0.339, -4.805e-5
0.338, -4.765e-5
0.337, -4.725e-5
0.336, -4.679e-5
0.335, -4.642e-5
0.334, -4.599e-5
0.333, -4.563e-5
0.332, -4.524e-5
0.331, -4.482e-5
0.330, -4.446e-5
0.329, -4.407e-5
0.328, -4.370e-5
0.327, -4.334e-5
0.326, -4.295e-5
0.325, -4.261e-5
0.324, -4.225e-5
0.323, -4.190e-5
0.322, -4.156e-5
0.321, -4.121e-5
0.320, -4.087e-5
0.319, -4.054e-5
0.318, -4.021e-5
0.317, -3.989e-5
0.316, -3.956e-5
0.315, -3.927e-5
0.314, -3.894e-5
0.313, -3.863e-5
0.312, -3.835e-5
0.311, -3.803e-5
0.310, -3.775e-5
0.309, -3.745e-5
0.308, -3.717e-5
0.307, -3.690e-5
0.306, -3.660e-5
0.305, -3.634e-5
0.304, -3.606e-5
0.303, -3.579e-5
0.302, -3.553e-5
0.301, -3.526e-5
0.300, -3.502e-5
0.299, -3.475e-5
0.298, -3.450e-5
0.297, -3.426e-5
0.296, -3.401e-5
0.295, -3.376e-5
0.294, -3.352e-5
0.293, -3.328e-5
0.292, -3.307e-5
0.291, -3.282e-5
0.290, -3.260e-5
0.289, -3.238e-5
0.288, -3.215e-5
0.287, -3.194e-5
0.286, -3.171e-5
0.285, -3.151e-5
0.284, -3.129e-5
0.283, -3.108e-5
0.282, -3.088e-5
0.281, -3.067e-5
0.280, -3.047e-5
0.279, -3.027e-5
0.278, -3.006e-5
0.277, -2.988e-5
0.276, -2.968e-5
0.275, -2.950e-5
0.274, -2.930e-5
0.273, -2.912e-5
0.272, -2.894e-5
0.271, -2.875e-5
0.270, -2.858e-5
0.269, -2.839e-5
0.268, -2.822e-5
0.267, -2.806e-5
0.266, -2.787e-5
0.265, -2.772e-5
0.264, -2.754e-5
0.263, -2.737e-5
0.262, -2.722e-5
0.261, -2.704e-5
0.260, -2.689e-5
0.259, -2.673e-5
0.258, -2.657e-5
0.257, -2.642e-5
0.256, -2.625e-5
0.255, -2.611e-5
0.254, -2.596e-5
0.253, -2.580e-5
0.252, -2.567e-5
0.251, -2.551e-5
0.250, -2.537e-5
0.249, -2.523e-5
0.248, -2.509e-5
0.247, -2.496e-5
0.246, -2.480e-5
0.245, -2.468e-5
0.244, -2.454e-5
0.243, -2.440e-5
0.242, -2.427e-5
0.241, -2.413e-5
0.240, -2.401e-5
0.239, -2.388e-5
0.238, -2.374e-5
0.237, -2.362e-5
0.236, -2.349e-5
0.235, -2.337e-5
0.234, -2.324e-5
0.233, -2.311e-5
0.232, -2.300e-5
0.231, -2.288e-5
0.230, -2.276e-5
0.229, -2.264e-5
0.228, -2.252e-5
0.227, -2.241e-5
0.226, -2.229e-5
0.225, -2.218e-5
0.224, -2.206e-5
0.223, -2.195e-5
0.222, -2.185e-5
0.221, -2.173e-5
0.220, -2.163e-5
0.219, -2.152e-5
0.218, -2.141e-5
0.217, -2.131e-5
0.216, -2.120e-5
0.215, -2.110e-5
0.214, -2.099e-5
0.213, -2.088e-5
0.212, -2.080e-5
0.211, -2.068e-5
0.210, -2.059e-5
0.209, -2.049e-5
0.208, -2.039e-5
0.207, -2.030e-5
0.206, -2.019e-5
0.205, -2.009e-5
0.204, -2.001e-5
0.203, -1.991e-5
0.202, -1.983e-5
0.201, -1.972e-5
0.200, -1.964e-5
0.199, -1.955e-5
0.198, -1.945e-5
0.197, -1.937e-5
0.196, -1.927e-5
0.195, -1.919e-5
0.194, -1.910e-5
0.193, -1.901e-5
0.192, -1.894e-5
0.191, -1.884e-5
0.190, -1.876e-5
0.189, -1.867e-5
0.188, -1.859e-5
0.187, -1.851e-5
0.186, -1.842e-5
0.185, -1.835e-5
0.184, -1.826e-5
0.183, -1.818e-5
0.182, -1.810e-5
0.181, -1.802e-5
0.180, -1.795e-5
0.179, -1.787e-5
0.178, -1.778e-5
0.177, -1.771e-5
0.176, -1.763e-5
0.175, -1.756e-5
0.174, -1.748e-5
0.173, -1.741e-5
0.172, -1.734e-5
0.171, -1.726e-5
0.170, -1.719e-5
0.169, -1.712e-5
0.168, -1.704e-5
0.167, -1.697e-5
0.166, -1.690e-5
0.165, -1.683e-5
0.164, -1.676e-5
0.163, -1.669e-5
0.162, -1.662e-5
0.161, -1.654e-5
0.160, -1.649e-5
0.159, -1.642e-5
0.158, -1.634e-5
0.157, -1.628e-5
0.156, -1.621e-5
0.155, -1.615e-5
0.154, -1.608e-5
0.153, -1.601e-5
0.152, -1.596e-5
0.151, -1.588e-5
0.150, -1.582e-5
0.149, -1.576e-5
0.148, -1.569e-5
0.147, -1.563e-5
0.146, -1.556e-5
0.145, -1.551e-5
0.144, -1.545e-5
0.143, -1.538e-5
0.142, -1.532e-5
0.141, -1.525e-5
0.140, -1.521e-5
0.139, -1.514e-5
0.138, -1.508e-5
0.137, -1.503e-5
0.136, -1.496e-5
0.135, -1.491e-5
0.134, -1.485e-5
0.133, -1.479e-5
0.132, -1.474e-5
0.131, -1.468e-5
0.130, -1.463e-5
0.129, -1.457e-5
0.128, -1.452e-5
0.127, -1.447e-5
0.126, -1.440e-5
0.125, -1.435e-5
0.124, -1.430e-5
0.123, -1.424e-5
0.122, -1.419e-5
0.121, -1.413e-5
0.120, -1.409e-5
0.119, -1.403e-5
0.118, -1.397e-5
0.117, -1.393e-5
0.116, -1.387e-5
0.115, -1.383e-5
0.114, -1.377e-5
0.113, -1.372e-5
0.112, -1.368e-5
0.111, -1.362e-5
0.110, -1.358e-5
0.109, -1.352e-5
0.108, -1.348e-5
0.107, -1.344e-5
0.106, -1.338e-5
0.105, -1.334e-5
0.104, -1.328e-5
0.103, -1.324e-5
0.102, -1.320e-5
0.101, -1.314e-5
0.100, -1.310e-5
0.099, -1.305e-5
0.098, -1.300e-5
0.097, -1.297e-5
0.096, -1.291e-5
0.095, -1.287e-5
0.094, -1.282e-5
0.093, -1.278e-5
0.092, -1.274e-5
0.091, -1.268e-5
0.090, -1.264e-5
0.089, -1.260e-5
0.088, -1.255e-5
0.087, -1.252e-5
0.086, -1.247e-5
0.085, -1.243e-5
0.084, -1.238e-5
0.083, -1.234e-5
0.082, -1.230e-5
0.081, -1.225e-5
0.080, -1.222e-5
0.079, -1.217e-5
0.078, -1.213e-5
0.077, -1.210e-5
0.076, -1.205e-5
0.075, -1.201e-5
0.074, -1.196e-5
0.073, -1.192e-5
0.072, -1.189e-5
0.071, -1.184e-5
0.070, -1.181e-5
0.069, -1.176e-5
0.068, -1.172e-5
0.067, -1.168e-5
0.066, -1.164e-5
0.065, -1.161e-5
0.064, -1.156e-5
0.063, -1.153e-5
0.062, -1.149e-5
0.061, -1.144e-5
0.060, -1.141e-5
0.059, -1.137e-5
0.058, -1.133e-5
0.057, -1.130e-5
0.056, -1.126e-5
0.055, -1.123e-5
0.054, -1.119e-5
0.053, -1.115e-5
0.052, -1.112e-5
0.051, -1.107e-5
0.050, -1.105e-5
0.049, -1.100e-5
0.048, -1.097e-5
0.047, -1.093e-5
0.046, -1.089e-5
0.045, -1.086e-5
0.044, -1.082e-5
0.043, -1.079e-5
0.042, -1.076e-5
0.041, -1.071e-5
0.040, -1.069e-5
0.039, -1.064e-5
0.038, -1.061e-5
0.037, -1.058e-5
0.036, -1.055e-5
0.035, -1.052e-5
0.034, -1.048e-5
0.033, -1.045e-5
0.032, -1.042e-5
0.031, -1.038e-5
0.030, -1.035e-5
0.029, -1.031e-5
0.028, -1.029e-5
0.027, -1.026e-5
0.026, -1.022e-5
0.025, -1.020e-5
0.024, -1.016e-5
0.023, -1.012e-5
0.022, -1.010e-5
0.021, -1.006e-5
0.020, -1.004e-5
0.019, -1.000e-5
0.018, -9.968e-6
0.017, -9.942e-6
0.016, -9.902e-6
0.015, -9.884e-6
0.014, -9.845e-6
0.013, -9.813e-6
0.012, -9.797e-6
0.011, -9.759e-6
0.010, -9.737e-6
0.009, -9.704e-6
0.008, -9.676e-6
0.007, -9.647e-6
0.006, -9.614e-6
0.005, -9.593e-6
0.004, -9.560e-6
0.003, -9.530e-6
0.002, -9.505e-6
0.001, -9.471e-6
