June 30, 2026   19:22:49
Cyclic Voltammetry
File: mecn_ar_0.1mtbapf6_3mm_1mmco(dmgh)2(py)cl_1mmzn(cyclen)(otf)2_2
Data Source:  Experiment
Instrument Model:  CHI660D
Header: 
Note: 

Init E (V) = 0
High E (V) = 0.9
Low E (V) = -1.3
Final E (V) = 0
Init P/N = N
Scan Rate (V/s) = 0.1
Segment = 3
Sample Interval (V) = 0.001
Quiet Time (sec) = 2
Sensitivity (A/V) = 1e-4
Comp R (ohm) = 139.3

Results:

Channel 1:
Segment 1:
Ep = -0.359V
ip = -6.783e-6A
Ah = -5.615e-6C

Segment 2:
Ep = 0.447V
ip = 1.074e-4A
Ah = 6.608e-5C

Segment 3:
Ep = 0.390V
ip = -1.083e-4A
Ah = -6.703e-5C

Potential/V, Current/A

0.000, -2.247e-6
-0.001, -2.324e-6
-0.002, -2.382e-6
-0.003, -2.426e-6
-0.004, -2.474e-6
-0.005, -2.522e-6
-0.006, -2.557e-6
-0.007, -2.606e-6
-0.008, -2.646e-6
-0.009, -2.686e-6
-0.010, -2.732e-6
-0.011, -2.768e-6
-0.012, -2.812e-6
-0.013, -2.851e-6
-0.014, -2.892e-6
-0.015, -2.936e-6
-0.016, -2.974e-6
-0.017, -3.021e-6
-0.018, -3.059e-6
-0.019, -3.099e-6
-0.020, -3.147e-6
-0.021, -3.185e-6
-0.022, -3.232e-6
-0.023, -3.271e-6
-0.024, -3.312e-6
-0.025, -3.361e-6
-0.026, -3.396e-6
-0.027, -3.445e-6
-0.028, -3.485e-6
-0.029, -3.528e-6
-0.030, -3.571e-6
-0.031, -3.612e-6
-0.032, -3.660e-6
-0.033, -3.704e-6
-0.034, -3.749e-6
-0.035, -3.792e-6
-0.036, -3.835e-6
-0.037, -3.883e-6
-0.038, -3.917e-6
-0.039, -3.970e-6
-0.040, -4.018e-6
-0.041, -4.055e-6
-0.042, -4.101e-6
-0.043, -4.141e-6
-0.044, -4.191e-6
-0.045, -4.240e-6
-0.046, -4.277e-6
-0.047, -4.332e-6
-0.048, -4.372e-6
-0.049, -4.420e-6
-0.050, -4.469e-6
-0.051, -4.508e-6
-0.052, -4.561e-6
-0.053, -4.604e-6
-0.054, -4.654e-6
-0.055, -4.707e-6
-0.056, -4.748e-6
-0.057, -4.799e-6
-0.058, -4.842e-6
-0.059, -4.889e-6
-0.060, -4.942e-6
-0.061, -4.985e-6
-0.062, -5.036e-6
-0.063, -5.079e-6
-0.064, -5.122e-6
-0.065, -5.179e-6
-0.066, -5.225e-6
-0.067, -5.277e-6
-0.068, -5.322e-6
-0.069, -5.371e-6
-0.070, -5.419e-6
-0.071, -5.464e-6
-0.072, -5.519e-6
-0.073, -5.561e-6
-0.074, -5.609e-6
-0.075, -5.662e-6
-0.076, -5.708e-6
-0.077, -5.760e-6
-0.078, -5.801e-6
-0.079, -5.849e-6
-0.080, -5.898e-6
-0.081, -5.939e-6
-0.082, -5.987e-6
-0.083, -6.026e-6
-0.084, -6.075e-6
-0.085, -6.129e-6
-0.086, -6.169e-6
-0.087, -6.218e-6
-0.088, -6.259e-6
-0.089, -6.303e-6
-0.090, -6.349e-6
-0.091, -6.391e-6
-0.092, -6.442e-6
-0.093, -6.481e-6
-0.094, -6.523e-6
-0.095, -6.569e-6
-0.096, -6.608e-6
-0.097, -6.660e-6
-0.098, -6.694e-6
-0.099, -6.737e-6
-0.100, -6.782e-6
-0.101, -6.821e-6
-0.102, -6.872e-6
-0.103, -6.907e-6
-0.104, -6.950e-6
-0.105, -6.989e-6
-0.106, -7.026e-6
-0.107, -7.072e-6
-0.108, -7.109e-6
-0.109, -7.150e-6
-0.110, -7.190e-6
-0.111, -7.225e-6
-0.112, -7.268e-6
-0.113, -7.300e-6
-0.114, -7.335e-6
-0.115, -7.369e-6
-0.116, -7.402e-6
-0.117, -7.440e-6
-0.118, -7.471e-6
-0.119, -7.506e-6
-0.120, -7.543e-6
-0.121, -7.570e-6
-0.122, -7.612e-6
-0.123, -7.640e-6
-0.124, -7.674e-6
-0.125, -7.702e-6
-0.126, -7.730e-6
-0.127, -7.768e-6
-0.128, -7.802e-6
-0.129, -7.831e-6
-0.130, -7.863e-6
-0.131, -7.890e-6
-0.132, -7.926e-6
-0.133, -7.948e-6
-0.134, -7.977e-6
-0.135, -8.007e-6
-0.136, -8.030e-6
-0.137, -8.062e-6
-0.138, -8.086e-6
-0.139, -8.113e-6
-0.140, -8.136e-6
-0.141, -8.153e-6
-0.142, -8.180e-6
-0.143, -8.203e-6
-0.144, -8.230e-6
-0.145, -8.253e-6
-0.146, -8.273e-6
-0.147, -8.300e-6
-0.148, -8.319e-6
-0.149, -8.346e-6
-0.150, -8.366e-6
-0.151, -8.384e-6
-0.152, -8.412e-6
-0.153, -8.425e-6
-0.154, -8.448e-6
-0.155, -8.467e-6
-0.156, -8.486e-6
-0.157, -8.510e-6
-0.158, -8.522e-6
-0.159, -8.544e-6
-0.160, -8.563e-6
-0.161, -8.584e-6
-0.162, -8.603e-6
-0.163, -8.616e-6
-0.164, -8.637e-6
-0.165, -8.656e-6
-0.166, -8.663e-6
-0.167, -8.690e-6
-0.168, -8.703e-6
-0.169, -8.724e-6
-0.170, -8.741e-6
-0.171, -8.753e-6
-0.172, -8.776e-6
-0.173, -8.787e-6
-0.174, -8.808e-6
-0.175, -8.824e-6
-0.176, -8.838e-6
-0.177, -8.861e-6
-0.178, -8.870e-6
-0.179, -8.897e-6
-0.180, -8.911e-6
-0.181, -8.922e-6
-0.182, -8.942e-6
-0.183, -8.957e-6
-0.184, -8.978e-6
-0.185, -8.994e-6
-0.186, -9.008e-6
-0.187, -9.031e-6
-0.188, -9.046e-6
-0.189, -9.066e-6
-0.190, -9.081e-6
-0.191, -9.099e-6
-0.192, -9.114e-6
-0.193, -9.129e-6
-0.194, -9.152e-6
-0.195, -9.166e-6
-0.196, -9.187e-6
-0.197, -9.212e-6
-0.198, -9.224e-6
-0.199, -9.250e-6
-0.200, -9.270e-6
-0.201, -9.288e-6
-0.202, -9.317e-6
-0.203, -9.334e-6
-0.204, -9.358e-6
-0.205, -9.373e-6
-0.206, -9.397e-6
-0.207, -9.432e-6
-0.208, -9.451e-6
-0.209, -9.483e-6
-0.210, -9.509e-6
-0.211, -9.534e-6
-0.212, -9.577e-6
-0.213, -9.597e-6
-0.214, -9.631e-6
-0.215, -9.662e-6
-0.216, -9.695e-6
-0.217, -9.731e-6
-0.218, -9.757e-6
-0.219, -9.800e-6
-0.220, -9.833e-6
-0.221, -9.869e-6
-0.222, -9.914e-6
-0.223, -9.948e-6
-0.224, -9.999e-6
-0.225, -1.004e-5
-0.226, -1.008e-5
-0.227, -1.013e-5
-0.228, -1.017e-5
-0.229, -1.023e-5
-0.230, -1.028e-5
-0.231, -1.033e-5
-0.232, -1.039e-5
-0.233, -1.043e-5
-0.234, -1.049e-5
-0.235, -1.055e-5
-0.236, -1.061e-5
-0.237, -1.067e-5
-0.238, -1.072e-5
-0.239, -1.080e-5
-0.240, -1.086e-5
-0.241, -1.092e-5
-0.242, -1.099e-5
-0.243, -1.104e-5
-0.244, -1.112e-5
-0.245, -1.119e-5
-0.246, -1.125e-5
-0.247, -1.133e-5
-0.248, -1.139e-5
-0.249, -1.147e-5
-0.250, -1.155e-5
-0.251, -1.162e-5
-0.252, -1.170e-5
-0.253, -1.178e-5
-0.254, -1.186e-5
-0.255, -1.194e-5
-0.256, -1.202e-5
-0.257, -1.211e-5
-0.258, -1.218e-5
-0.259, -1.227e-5
-0.260, -1.235e-5
-0.261, -1.244e-5
-0.262, -1.253e-5
-0.263, -1.261e-5
-0.264, -1.270e-5
-0.265, -1.279e-5
-0.266, -1.287e-5
-0.267, -1.297e-5
-0.268, -1.305e-5
-0.269, -1.314e-5
-0.270, -1.323e-5
-0.271, -1.332e-5
-0.272, -1.342e-5
-0.273, -1.350e-5
-0.274, -1.360e-5
-0.275, -1.369e-5
-0.276, -1.378e-5
-0.277, -1.388e-5
-0.278, -1.397e-5
-0.279, -1.407e-5
-0.280, -1.416e-5
-0.281, -1.426e-5
-0.282, -1.436e-5
-0.283, -1.445e-5
-0.284, -1.455e-5
-0.285, -1.464e-5
-0.286, -1.474e-5
-0.287, -1.484e-5
-0.288, -1.492e-5
-0.289, -1.502e-5
-0.290, -1.511e-5
-0.291, -1.520e-5
-0.292, -1.530e-5
-0.293, -1.539e-5
-0.294, -1.547e-5
-0.295, -1.556e-5
-0.296, -1.565e-5
-0.297, -1.575e-5
-0.298, -1.583e-5
-0.299, -1.592e-5
-0.300, -1.601e-5
-0.301, -1.610e-5
-0.302, -1.619e-5
-0.303, -1.627e-5
-0.304, -1.636e-5
-0.305, -1.644e-5
-0.306, -1.652e-5
-0.307, -1.661e-5
-0.308, -1.669e-5
-0.309, -1.677e-5
-0.310, -1.684e-5
-0.311, -1.692e-5
-0.312, -1.700e-5
-0.313, -1.707e-5
-0.314, -1.714e-5
-0.315, -1.721e-5
-0.316, -1.728e-5
-0.317, -1.735e-5
-0.318, -1.741e-5
-0.319, -1.749e-5
-0.320, -1.753e-5
-0.321, -1.760e-5
-0.322, -1.766e-5
-0.323, -1.772e-5
-0.324, -1.778e-5
-0.325, -1.784e-5
-0.326, -1.789e-5
-0.327, -1.794e-5
-0.328, -1.799e-5
-0.329, -1.805e-5
-0.330, -1.809e-5
-0.331, -1.814e-5
-0.332, -1.819e-5
-0.333, -1.824e-5
-0.334, -1.828e-5
-0.335, -1.832e-5
-0.336, -1.836e-5
-0.337, -1.839e-5
-0.338, -1.842e-5
-0.339, -1.846e-5
-0.340, -1.849e-5
-0.341, -1.852e-5
-0.342, -1.855e-5
-0.343, -1.857e-5
-0.344, -1.860e-5
-0.345, -1.861e-5
-0.346, -1.863e-5
-0.347, -1.865e-5
-0.348, -1.867e-5
-0.349, -1.869e-5
-0.350, -1.870e-5
-0.351, -1.871e-5
-0.352, -1.872e-5
-0.353, -1.873e-5
-0.354, -1.875e-5
-0.355, -1.875e-5
-0.356, -1.876e-5
-0.357, -1.877e-5
-0.358, -1.876e-5
-0.359, -1.877e-5
-0.360, -1.877e-5
-0.361, -1.877e-5
-0.362, -1.877e-5
-0.363, -1.876e-5
-0.364, -1.876e-5
-0.365, -1.875e-5
-0.366, -1.874e-5
-0.367, -1.874e-5
-0.368, -1.872e-5
-0.369, -1.872e-5
-0.370, -1.870e-5
-0.371, -1.868e-5
-0.372, -1.868e-5
-0.373, -1.866e-5
-0.374, -1.865e-5
-0.375, -1.864e-5
-0.376, -1.862e-5
-0.377, -1.860e-5
-0.378, -1.858e-5
-0.379, -1.857e-5
-0.380, -1.855e-5
-0.381, -1.853e-5
-0.382, -1.851e-5
-0.383, -1.849e-5
-0.384, -1.848e-5
-0.385, -1.845e-5
-0.386, -1.842e-5
-0.387, -1.840e-5
-0.388, -1.838e-5
-0.389, -1.836e-5
-0.390, -1.832e-5
-0.391, -1.830e-5
-0.392, -1.828e-5
-0.393, -1.825e-5
-0.394, -1.823e-5
-0.395, -1.820e-5
-0.396, -1.817e-5
-0.397, -1.814e-5
-0.398, -1.811e-5
-0.399, -1.809e-5
-0.400, -1.805e-5
-0.401, -1.803e-5
-0.402, -1.800e-5
-0.403, -1.797e-5
-0.404, -1.795e-5
-0.405, -1.791e-5
-0.406, -1.789e-5
-0.407, -1.786e-5
-0.408, -1.782e-5
-0.409, -1.778e-5
-0.410, -1.774e-5
-0.411, -1.772e-5
-0.412, -1.769e-5
-0.413, -1.765e-5
-0.414, -1.763e-5
-0.415, -1.760e-5
-0.416, -1.757e-5
-0.417, -1.754e-5
-0.418, -1.751e-5
-0.419, -1.748e-5
-0.420, -1.745e-5
-0.421, -1.742e-5
-0.422, -1.739e-5
-0.423, -1.736e-5
-0.424, -1.734e-5
-0.425, -1.730e-5
-0.426, -1.728e-5
-0.427, -1.725e-5
-0.428, -1.722e-5
-0.429, -1.719e-5
-0.430, -1.715e-5
-0.431, -1.713e-5
-0.432, -1.710e-5
-0.433, -1.706e-5
-0.434, -1.704e-5
-0.435, -1.702e-5
-0.436, -1.699e-5
-0.437, -1.696e-5
-0.438, -1.692e-5
-0.439, -1.690e-5
-0.440, -1.687e-5
-0.441, -1.685e-5
-0.442, -1.682e-5
-0.443, -1.678e-5
-0.444, -1.677e-5
-0.445, -1.673e-5
-0.446, -1.670e-5
-0.447, -1.668e-5
-0.448, -1.665e-5
-0.449, -1.663e-5
-0.450, -1.660e-5
-0.451, -1.658e-5
-0.452, -1.656e-5
-0.453, -1.653e-5
-0.454, -1.650e-5
-0.455, -1.647e-5
-0.456, -1.645e-5
-0.457, -1.642e-5
-0.458, -1.639e-5
-0.459, -1.637e-5
-0.460, -1.634e-5
-0.461, -1.631e-5
-0.462, -1.629e-5
-0.463, -1.626e-5
-0.464, -1.624e-5
-0.465, -1.621e-5
-0.466, -1.619e-5
-0.467, -1.617e-5
-0.468, -1.615e-5
-0.469, -1.613e-5
-0.470, -1.610e-5
-0.471, -1.608e-5
-0.472, -1.606e-5
-0.473, -1.602e-5
-0.474, -1.601e-5
-0.475, -1.597e-5
-0.476, -1.596e-5
-0.477, -1.593e-5
-0.478, -1.590e-5
-0.479, -1.589e-5
-0.480, -1.585e-5
-0.481, -1.584e-5
-0.482, -1.581e-5
-0.483, -1.579e-5
-0.484, -1.577e-5
-0.485, -1.575e-5
-0.486, -1.574e-5
-0.487, -1.572e-5
-0.488, -1.569e-5
-0.489, -1.568e-5
-0.490, -1.566e-5
-0.491, -1.564e-5
-0.492, -1.562e-5
-0.493, -1.560e-5
-0.494, -1.558e-5
-0.495, -1.556e-5
-0.496, -1.554e-5
-0.497, -1.553e-5
-0.498, -1.550e-5
-0.499, -1.548e-5
-0.500, -1.546e-5
-0.501, -1.544e-5
-0.502, -1.543e-5
-0.503, -1.541e-5
-0.504, -1.540e-5
-0.505, -1.538e-5
-0.506, -1.537e-5
-0.507, -1.536e-5
-0.508, -1.534e-5
-0.509, -1.534e-5
-0.510, -1.531e-5
-0.511, -1.530e-5
-0.512, -1.530e-5
-0.513, -1.527e-5
-0.514, -1.526e-5
-0.515, -1.524e-5
-0.516, -1.523e-5
-0.517, -1.522e-5
-0.518, -1.520e-5
-0.519, -1.519e-5
-0.520, -1.517e-5
-0.521, -1.516e-5
-0.522, -1.515e-5
-0.523, -1.513e-5
-0.524, -1.512e-5
-0.525, -1.510e-5
-0.526, -1.509e-5
-0.527, -1.509e-5
-0.528, -1.507e-5
-0.529, -1.507e-5
-0.530, -1.505e-5
-0.531, -1.504e-5
-0.532, -1.503e-5
-0.533, -1.501e-5
-0.534, -1.500e-5
-0.535, -1.498e-5
-0.536, -1.497e-5
-0.537, -1.496e-5
-0.538, -1.494e-5
-0.539, -1.494e-5
-0.540, -1.492e-5
-0.541, -1.491e-5
-0.542, -1.489e-5
-0.543, -1.488e-5
-0.544, -1.488e-5
-0.545, -1.486e-5
-0.546, -1.485e-5
-0.547, -1.485e-5
-0.548, -1.484e-5
-0.549, -1.483e-5
-0.550, -1.481e-5
-0.551, -1.481e-5
-0.552, -1.480e-5
-0.553, -1.479e-5
-0.554, -1.478e-5
-0.555, -1.476e-5
-0.556, -1.476e-5
-0.557, -1.475e-5
-0.558, -1.473e-5
-0.559, -1.473e-5
-0.560, -1.471e-5
-0.561, -1.470e-5
-0.562, -1.469e-5
-0.563, -1.467e-5
-0.564, -1.467e-5
-0.565, -1.465e-5
-0.566, -1.465e-5
-0.567, -1.464e-5
-0.568, -1.463e-5
-0.569, -1.463e-5
-0.570, -1.463e-5
-0.571, -1.463e-5
-0.572, -1.462e-5
-0.573, -1.461e-5
-0.574, -1.461e-5
-0.575, -1.460e-5
-0.576, -1.459e-5
-0.577, -1.458e-5
-0.578, -1.456e-5
-0.579, -1.456e-5
-0.580, -1.454e-5
-0.581, -1.454e-5
-0.582, -1.452e-5
-0.583, -1.451e-5
-0.584, -1.451e-5
-0.585, -1.449e-5
-0.586, -1.449e-5
-0.587, -1.448e-5
-0.588, -1.448e-5
-0.589, -1.448e-5
-0.590, -1.447e-5
-0.591, -1.448e-5
-0.592, -1.448e-5
-0.593, -1.447e-5
-0.594, -1.447e-5
-0.595, -1.445e-5
-0.596, -1.445e-5
-0.597, -1.444e-5
-0.598, -1.442e-5
-0.599, -1.441e-5
-0.600, -1.439e-5
-0.601, -1.437e-5
-0.602, -1.436e-5
-0.603, -1.434e-5
-0.604, -1.434e-5
-0.605, -1.432e-5
-0.606, -1.432e-5
-0.607, -1.431e-5
-0.608, -1.430e-5
-0.609, -1.430e-5
-0.610, -1.429e-5
-0.611, -1.429e-5
-0.612, -1.429e-5
-0.613, -1.429e-5
-0.614, -1.427e-5
-0.615, -1.426e-5
-0.616, -1.427e-5
-0.617, -1.426e-5
-0.618, -1.424e-5
-0.619, -1.424e-5
-0.620, -1.423e-5
-0.621, -1.422e-5
-0.622, -1.421e-5
-0.623, -1.421e-5
-0.624, -1.421e-5
-0.625, -1.419e-5
-0.626, -1.419e-5
-0.627, -1.418e-5
-0.628, -1.417e-5
-0.629, -1.418e-5
-0.630, -1.416e-5
-0.631, -1.416e-5
-0.632, -1.416e-5
-0.633, -1.415e-5
-0.634, -1.415e-5
-0.635, -1.414e-5
-0.636, -1.414e-5
-0.637, -1.413e-5
-0.638, -1.412e-5
-0.639, -1.413e-5
-0.640, -1.412e-5
-0.641, -1.412e-5
-0.642, -1.411e-5
-0.643, -1.410e-5
-0.644, -1.411e-5
-0.645, -1.410e-5
-0.646, -1.409e-5
-0.647, -1.409e-5
-0.648, -1.408e-5
-0.649, -1.409e-5
-0.650, -1.408e-5
-0.651, -1.408e-5
-0.652, -1.407e-5
-0.653, -1.406e-5
-0.654, -1.406e-5
-0.655, -1.405e-5
-0.656, -1.405e-5
-0.657, -1.405e-5
-0.658, -1.404e-5
-0.659, -1.404e-5
-0.660, -1.403e-5
-0.661, -1.403e-5
-0.662, -1.402e-5
-0.663, -1.401e-5
-0.664, -1.402e-5
-0.665, -1.401e-5
-0.666, -1.401e-5
-0.667, -1.400e-5
-0.668, -1.401e-5
-0.669, -1.401e-5
-0.670, -1.400e-5
-0.671, -1.401e-5
-0.672, -1.400e-5
-0.673, -1.401e-5
-0.674, -1.401e-5
-0.675, -1.399e-5
-0.676, -1.400e-5
-0.677, -1.399e-5
-0.678, -1.398e-5
-0.679, -1.399e-5
-0.680, -1.398e-5
-0.681, -1.398e-5
-0.682, -1.398e-5
-0.683, -1.397e-5
-0.684, -1.398e-5
-0.685, -1.397e-5
-0.686, -1.397e-5
-0.687, -1.398e-5
-0.688, -1.398e-5
-0.689, -1.399e-5
-0.690, -1.398e-5
-0.691, -1.400e-5
-0.692, -1.400e-5
-0.693, -1.400e-5
-0.694, -1.400e-5
-0.695, -1.400e-5
-0.696, -1.401e-5
-0.697, -1.400e-5
-0.698, -1.399e-5
-0.699, -1.400e-5
-0.700, -1.399e-5
-0.701, -1.399e-5
-0.702, -1.399e-5
-0.703, -1.399e-5
-0.704, -1.399e-5
-0.705, -1.399e-5
-0.706, -1.400e-5
-0.707, -1.400e-5
-0.708, -1.401e-5
-0.709, -1.402e-5
-0.710, -1.402e-5
-0.711, -1.403e-5
-0.712, -1.404e-5
-0.713, -1.403e-5
-0.714, -1.404e-5
-0.715, -1.403e-5
-0.716, -1.405e-5
-0.717, -1.404e-5
-0.718, -1.404e-5
-0.719, -1.404e-5
-0.720, -1.404e-5
-0.721, -1.404e-5
-0.722, -1.404e-5
-0.723, -1.405e-5
-0.724, -1.406e-5
-0.725, -1.406e-5
-0.726, -1.407e-5
-0.727, -1.407e-5
-0.728, -1.407e-5
-0.729, -1.408e-5
-0.730, -1.408e-5
-0.731, -1.409e-5
-0.732, -1.410e-5
-0.733, -1.410e-5
-0.734, -1.411e-5
-0.735, -1.411e-5
-0.736, -1.412e-5
-0.737, -1.412e-5
-0.738, -1.413e-5
-0.739, -1.414e-5
-0.740, -1.414e-5
-0.741, -1.416e-5
-0.742, -1.417e-5
-0.743, -1.417e-5
-0.744, -1.419e-5
-0.745, -1.420e-5
-0.746, -1.422e-5
-0.747, -1.423e-5
-0.748, -1.425e-5
-0.749, -1.426e-5
-0.750, -1.426e-5
-0.751, -1.428e-5
-0.752, -1.429e-5
-0.753, -1.431e-5
-0.754, -1.432e-5
-0.755, -1.432e-5
-0.756, -1.435e-5
-0.757, -1.437e-5
-0.758, -1.438e-5
-0.759, -1.441e-5
-0.760, -1.442e-5
-0.761, -1.445e-5
-0.762, -1.447e-5
-0.763, -1.449e-5
-0.764, -1.451e-5
-0.765, -1.453e-5
-0.766, -1.456e-5
-0.767, -1.458e-5
-0.768, -1.460e-5
-0.769, -1.463e-5
-0.770, -1.464e-5
-0.771, -1.467e-5
-0.772, -1.470e-5
-0.773, -1.472e-5
-0.774, -1.475e-5
-0.775, -1.478e-5
-0.776, -1.481e-5
-0.777, -1.484e-5
-0.778, -1.487e-5
-0.779, -1.491e-5
-0.780, -1.494e-5
-0.781, -1.497e-5
-0.782, -1.500e-5
-0.783, -1.504e-5
-0.784, -1.507e-5
-0.785, -1.510e-5
-0.786, -1.514e-5
-0.787, -1.516e-5
-0.788, -1.520e-5
-0.789, -1.523e-5
-0.790, -1.526e-5
-0.791, -1.531e-5
-0.792, -1.534e-5
-0.793, -1.540e-5
-0.794, -1.544e-5
-0.795, -1.547e-5
-0.796, -1.554e-5
-0.797, -1.558e-5
-0.798, -1.563e-5
-0.799, -1.569e-5
-0.800, -1.574e-5
-0.801, -1.581e-5
-0.802, -1.586e-5
-0.803, -1.591e-5
-0.804, -1.597e-5
-0.805, -1.602e-5
-0.806, -1.608e-5
-0.807, -1.614e-5
-0.808, -1.621e-5
-0.809, -1.628e-5
-0.810, -1.635e-5
-0.811, -1.643e-5
-0.812, -1.651e-5
-0.813, -1.659e-5
-0.814, -1.668e-5
-0.815, -1.676e-5
-0.816, -1.687e-5
-0.817, -1.696e-5
-0.818, -1.706e-5
-0.819, -1.714e-5
-0.820, -1.725e-5
-0.821, -1.738e-5
-0.822, -1.748e-5
-0.823, -1.760e-5
-0.824, -1.771e-5
-0.825, -1.784e-5
-0.826, -1.797e-5
-0.827, -1.808e-5
-0.828, -1.823e-5
-0.829, -1.836e-5
-0.830, -1.850e-5
-0.831, -1.866e-5
-0.832, -1.878e-5
-0.833, -1.895e-5
-0.834, -1.911e-5
-0.835, -1.928e-5
-0.836, -1.946e-5
-0.837, -1.962e-5
-0.838, -1.981e-5
-0.839, -1.999e-5
-0.840, -2.017e-5
-0.841, -2.037e-5
-0.842, -2.055e-5
-0.843, -2.076e-5
-0.844, -2.097e-5
-0.845, -2.119e-5
-0.846, -2.140e-5
-0.847, -2.160e-5
-0.848, -2.183e-5
-0.849, -2.205e-5
-0.850, -2.228e-5
-0.851, -2.252e-5
-0.852, -2.276e-5
-0.853, -2.301e-5
-0.854, -2.325e-5
-0.855, -2.351e-5
-0.856, -2.379e-5
-0.857, -2.403e-5
-0.858, -2.430e-5
-0.859, -2.456e-5
-0.860, -2.486e-5
-0.861, -2.514e-5
-0.862, -2.540e-5
-0.863, -2.571e-5
-0.864, -2.599e-5
-0.865, -2.630e-5
-0.866, -2.660e-5
-0.867, -2.688e-5
-0.868, -2.722e-5
-0.869, -2.753e-5
-0.870, -2.785e-5
-0.871, -2.818e-5
-0.872, -2.849e-5
-0.873, -2.886e-5
-0.874, -2.918e-5
-0.875, -2.952e-5
-0.876, -2.989e-5
-0.877, -3.022e-5
-0.878, -3.060e-5
-0.879, -3.096e-5
-0.880, -3.133e-5
-0.881, -3.172e-5
-0.882, -3.209e-5
-0.883, -3.245e-5
-0.884, -3.286e-5
-0.885, -3.325e-5
-0.886, -3.366e-5
-0.887, -3.405e-5
-0.888, -3.449e-5
-0.889, -3.489e-5
-0.890, -3.530e-5
-0.891, -3.574e-5
-0.892, -3.617e-5
-0.893, -3.664e-5
-0.894, -3.704e-5
-0.895, -3.751e-5
-0.896, -3.803e-5
-0.897, -3.846e-5
-0.898, -3.896e-5
-0.899, -3.939e-5
-0.900, -3.992e-5
-0.901, -4.041e-5
-0.902, -4.085e-5
-0.903, -4.138e-5
-0.904, -4.188e-5
-0.905, -4.240e-5
-0.906, -4.293e-5
-0.907, -4.342e-5
-0.908, -4.399e-5
-0.909, -4.444e-5
-0.910, -4.500e-5
-0.911, -4.558e-5
-0.912, -4.610e-5
-0.913, -4.670e-5
-0.914, -4.723e-5
-0.915, -4.781e-5
-0.916, -4.839e-5
-0.917, -4.895e-5
-0.918, -4.955e-5
-0.919, -5.012e-5
-0.920, -5.073e-5
-0.921, -5.139e-5
-0.922, -5.197e-5
-0.923, -5.260e-5
-0.924, -5.316e-5
-0.925, -5.379e-5
-0.926, -5.441e-5
-0.927, -5.500e-5
-0.928, -5.564e-5
-0.929, -5.624e-5
-0.930, -5.688e-5
-0.931, -5.748e-5
-0.932, -5.810e-5
-0.933, -5.877e-5
-0.934, -5.932e-5
-0.935, -5.997e-5
-0.936, -6.061e-5
-0.937, -6.122e-5
-0.938, -6.192e-5
-0.939, -6.253e-5
-0.940, -6.315e-5
-0.941, -6.381e-5
-0.942, -6.440e-5
-0.943, -6.506e-5
-0.944, -6.565e-5
-0.945, -6.630e-5
-0.946, -6.692e-5
-0.947, -6.756e-5
-0.948, -6.818e-5
-0.949, -6.875e-5
-0.950, -6.934e-5
-0.951, -6.996e-5
-0.952, -7.051e-5
-0.953, -7.115e-5
-0.954, -7.167e-5
-0.955, -7.229e-5
-0.956, -7.288e-5
-0.957, -7.341e-5
-0.958, -7.401e-5
-0.959, -7.453e-5
-0.960, -7.501e-5
-0.961, -7.559e-5
-0.962, -7.610e-5
-0.963, -7.664e-5
-0.964, -7.714e-5
-0.965, -7.766e-5
-0.966, -7.815e-5
-0.967, -7.858e-5
-0.968, -7.911e-5
-0.969, -7.957e-5
-0.970, -8.003e-5
-0.971, -8.047e-5
-0.972, -8.088e-5
-0.973, -8.134e-5
-0.974, -8.173e-5
-0.975, -8.216e-5
-0.976, -8.257e-5
-0.977, -8.296e-5
-0.978, -8.339e-5
-0.979, -8.372e-5
-0.980, -8.411e-5
-0.981, -8.447e-5
-0.982, -8.479e-5
-0.983, -8.517e-5
-0.984, -8.547e-5
-0.985, -8.580e-5
-0.986, -8.611e-5
-0.987, -8.640e-5
-0.988, -8.673e-5
-0.989, -8.700e-5
-0.990, -8.727e-5
-0.991, -8.753e-5
-0.992, -8.778e-5
-0.993, -8.806e-5
-0.994, -8.829e-5
-0.995, -8.853e-5
-0.996, -8.877e-5
-0.997, -8.900e-5
-0.998, -8.924e-5
-0.999, -8.943e-5
-1.000, -8.964e-5
-1.001, -8.983e-5
-1.002, -9.000e-5
-1.003, -9.018e-5
-1.004, -9.035e-5
-1.005, -9.051e-5
-1.006, -9.068e-5
-1.007, -9.081e-5
-1.008, -9.099e-5
-1.009, -9.111e-5
-1.010, -9.124e-5
-1.011, -9.135e-5
-1.012, -9.149e-5
-1.013, -9.163e-5
-1.014, -9.172e-5
-1.015, -9.184e-5
-1.016, -9.195e-5
-1.017, -9.204e-5
-1.018, -9.215e-5
-1.019, -9.222e-5
-1.020, -9.231e-5
-1.021, -9.240e-5
-1.022, -9.246e-5
-1.023, -9.255e-5
-1.024, -9.255e-5
-1.025, -9.265e-5
-1.026, -9.274e-5
-1.027, -9.278e-5
-1.028, -9.286e-5
-1.029, -9.291e-5
-1.030, -9.296e-5
-1.031, -9.302e-5
-1.032, -9.306e-5
-1.033, -9.312e-5
-1.034, -9.315e-5
-1.035, -9.319e-5
-1.036, -9.323e-5
-1.037, -9.325e-5
-1.038, -9.329e-5
-1.039, -9.331e-5
-1.040, -9.334e-5
-1.041, -9.337e-5
-1.042, -9.338e-5
-1.043, -9.340e-5
-1.044, -9.344e-5
-1.045, -9.345e-5
-1.046, -9.347e-5
-1.047, -9.349e-5
-1.048, -9.352e-5
-1.049, -9.354e-5
-1.050, -9.356e-5
-1.051, -9.357e-5
-1.052, -9.358e-5
-1.053, -9.360e-5
-1.054, -9.360e-5
-1.055, -9.361e-5
-1.056, -9.362e-5
-1.057, -9.361e-5
-1.058, -9.362e-5
-1.059, -9.362e-5
-1.060, -9.362e-5
-1.061, -9.364e-5
-1.062, -9.361e-5
-1.063, -9.363e-5
-1.064, -9.363e-5
-1.065, -9.364e-5
-1.066, -9.365e-5
-1.067, -9.364e-5
-1.068, -9.365e-5
-1.069, -9.365e-5
-1.070, -9.364e-5
-1.071, -9.365e-5
-1.072, -9.364e-5
-1.073, -9.365e-5
-1.074, -9.365e-5
-1.075, -9.364e-5
-1.076, -9.365e-5
-1.077, -9.364e-5
-1.078, -9.364e-5
-1.079, -9.364e-5
-1.080, -9.364e-5
-1.081, -9.364e-5
-1.082, -9.363e-5
-1.083, -9.363e-5
-1.084, -9.363e-5
-1.085, -9.362e-5
-1.086, -9.363e-5
-1.087, -9.361e-5
-1.088, -9.361e-5
-1.089, -9.361e-5
-1.090, -9.362e-5
-1.091, -9.362e-5
-1.092, -9.361e-5
-1.093, -9.361e-5
-1.094, -9.360e-5
-1.095, -9.360e-5
-1.096, -9.360e-5
-1.097, -9.359e-5
-1.098, -9.359e-5
-1.099, -9.359e-5
-1.100, -9.359e-5
-1.101, -9.360e-5
-1.102, -9.359e-5
-1.103, -9.360e-5
-1.104, -9.360e-5
-1.105, -9.360e-5
-1.106, -9.360e-5
-1.107, -9.359e-5
-1.108, -9.360e-5
-1.109, -9.360e-5
-1.110, -9.359e-5
-1.111, -9.361e-5
-1.112, -9.360e-5
-1.113, -9.360e-5
-1.114, -9.360e-5
-1.115, -9.360e-5
-1.116, -9.362e-5
-1.117, -9.361e-5
-1.118, -9.362e-5
-1.119, -9.362e-5
-1.120, -9.363e-5
-1.121, -9.365e-5
-1.122, -9.365e-5
-1.123, -9.366e-5
-1.124, -9.367e-5
-1.125, -9.368e-5
-1.126, -9.370e-5
-1.127, -9.370e-5
-1.128, -9.372e-5
-1.129, -9.373e-5
-1.130, -9.374e-5
-1.131, -9.375e-5
-1.132, -9.376e-5
-1.133, -9.378e-5
-1.134, -9.379e-5
-1.135, -9.380e-5
-1.136, -9.383e-5
-1.137, -9.384e-5
-1.138, -9.387e-5
-1.139, -9.387e-5
-1.140, -9.391e-5
-1.141, -9.393e-5
-1.142, -9.395e-5
-1.143, -9.399e-5
-1.144, -9.401e-5
-1.145, -9.404e-5
-1.146, -9.408e-5
-1.147, -9.410e-5
-1.148, -9.414e-5
-1.149, -9.417e-5
-1.150, -9.419e-5
-1.151, -9.423e-5
-1.152, -9.427e-5
-1.153, -9.431e-5
-1.154, -9.434e-5
-1.155, -9.438e-5
-1.156, -9.443e-5
-1.157, -9.445e-5
-1.158, -9.450e-5
-1.159, -9.455e-5
-1.160, -9.461e-5
-1.161, -9.465e-5
-1.162, -9.469e-5
-1.163, -9.475e-5
-1.164, -9.480e-5
-1.165, -9.485e-5
-1.166, -9.491e-5
-1.167, -9.496e-5
-1.168, -9.503e-5
-1.169, -9.509e-5
-1.170, -9.516e-5
-1.171, -9.522e-5
-1.172, -9.529e-5
-1.173, -9.537e-5
-1.174, -9.543e-5
-1.175, -9.550e-5
-1.176, -9.558e-5
-1.177, -9.564e-5
-1.178, -9.573e-5
-1.179, -9.581e-5
-1.180, -9.589e-5
-1.181, -9.598e-5
-1.182, -9.606e-5
-1.183, -9.617e-5
-1.184, -9.624e-5
-1.185, -9.635e-5
-1.186, -9.645e-5
-1.187, -9.655e-5
-1.188, -9.666e-5
-1.189, -9.676e-5
-1.190, -9.685e-5
-1.191, -9.696e-5
-1.192, -9.708e-5
-1.193, -9.721e-5
-1.194, -9.731e-5
-1.195, -9.744e-5
-1.196, -9.757e-5
-1.197, -9.768e-5
-1.198, -9.781e-5
-1.199, -9.795e-5
-1.200, -9.808e-5
-1.201, -9.823e-5
-1.202, -9.836e-5
-1.203, -9.853e-5
-1.204, -9.867e-5
-1.205, -9.882e-5
-1.206, -9.897e-5
-1.207, -9.912e-5
-1.208, -9.929e-5
-1.209, -9.943e-5
-1.210, -9.959e-5
-1.211, -9.976e-5
-1.212, -9.991e-5
-1.213, -1.001e-4
-1.214, -1.003e-4
-1.215, -1.005e-4
-1.216, -1.006e-4
-1.217, -1.008e-4
-1.218, -1.010e-4
-1.219, -1.012e-4
-1.220, -1.014e-4
-1.221, -1.016e-4
-1.222, -1.017e-4
-1.223, -1.020e-4
-1.224, -1.021e-4
-1.225, -1.023e-4
-1.226, -1.026e-4
-1.227, -1.027e-4
-1.228, -1.029e-4
-1.229, -1.031e-4
-1.230, -1.033e-4
-1.231, -1.035e-4
-1.232, -1.037e-4
-1.233, -1.040e-4
-1.234, -1.042e-4
-1.235, -1.044e-4
-1.236, -1.046e-4
-1.237, -1.048e-4
-1.238, -1.050e-4
-1.239, -1.052e-4
-1.240, -1.055e-4
-1.241, -1.057e-4
-1.242, -1.059e-4
-1.243, -1.061e-4
-1.244, -1.063e-4
-1.245, -1.065e-4
-1.246, -1.067e-4
-1.247, -1.069e-4
-1.248, -1.072e-4
-1.249, -1.073e-4
-1.250, -1.076e-4
-1.251, -1.078e-4
-1.252, -1.080e-4
-1.253, -1.082e-4
-1.254, -1.084e-4
-1.255, -1.086e-4
-1.256, -1.088e-4
-1.257, -1.090e-4
-1.258, -1.092e-4
-1.259, -1.094e-4
-1.260, -1.096e-4
-1.261, -1.097e-4
-1.262, -1.099e-4
-1.263, -1.101e-4
-1.264, -1.103e-4
-1.265, -1.105e-4
-1.266, -1.106e-4
-1.267, -1.108e-4
-1.268, -1.110e-4
-1.269, -1.111e-4
-1.270, -1.113e-4
-1.271, -1.114e-4
-1.272, -1.116e-4
-1.273, -1.117e-4
-1.274, -1.119e-4
-1.275, -1.120e-4
-1.276, -1.122e-4
-1.277, -1.123e-4
-1.278, -1.124e-4
-1.279, -1.126e-4
-1.280, -1.127e-4
-1.281, -1.128e-4
-1.282, -1.129e-4
-1.283, -1.131e-4
-1.284, -1.132e-4
-1.285, -1.133e-4
-1.286, -1.134e-4
-1.287, -1.135e-4
-1.288, -1.137e-4
-1.289, -1.138e-4
-1.290, -1.139e-4
-1.291, -1.140e-4
-1.292, -1.141e-4
-1.293, -1.142e-4
-1.294, -1.143e-4
-1.295, -1.144e-4
-1.296, -1.145e-4
-1.297, -1.146e-4
-1.298, -1.147e-4
-1.299, -1.147e-4
-1.300, -1.141e-4
-1.299, -1.131e-4
-1.298, -1.124e-4
-1.297, -1.118e-4
-1.296, -1.113e-4
-1.295, -1.107e-4
-1.294, -1.102e-4
-1.293, -1.098e-4
-1.292, -1.093e-4
-1.291, -1.088e-4
-1.290, -1.083e-4
-1.289, -1.079e-4
-1.288, -1.074e-4
-1.287, -1.070e-4
-1.286, -1.066e-4
-1.285, -1.061e-4
-1.284, -1.057e-4
-1.283, -1.053e-4
-1.282, -1.049e-4
-1.281, -1.044e-4
-1.280, -1.040e-4
-1.279, -1.036e-4
-1.278, -1.032e-4
-1.277, -1.028e-4
-1.276, -1.024e-4
-1.275, -1.020e-4
-1.274, -1.016e-4
-1.273, -1.012e-4
-1.272, -1.008e-4
-1.271, -1.004e-4
-1.270, -1.000e-4
-1.269, -9.966e-5
-1.268, -9.926e-5
-1.267, -9.891e-5
-1.266, -9.851e-5
-1.265, -9.814e-5
-1.264, -9.777e-5
-1.263, -9.739e-5
-1.262, -9.703e-5
-1.261, -9.666e-5
-1.260, -9.631e-5
-1.259, -9.592e-5
-1.258, -9.558e-5
-1.257, -9.523e-5
-1.256, -9.487e-5
-1.255, -9.451e-5
-1.254, -9.415e-5
-1.253, -9.381e-5
-1.252, -9.348e-5
-1.251, -9.312e-5
-1.250, -9.279e-5
-1.249, -9.246e-5
-1.248, -9.214e-5
-1.247, -9.182e-5
-1.246, -9.149e-5
-1.245, -9.119e-5
-1.244, -9.086e-5
-1.243, -9.056e-5
-1.242, -9.027e-5
-1.241, -8.996e-5
-1.240, -8.968e-5
-1.239, -8.937e-5
-1.238, -8.908e-5
-1.237, -8.881e-5
-1.236, -8.852e-5
-1.235, -8.826e-5
-1.234, -8.799e-5
-1.233, -8.771e-5
-1.232, -8.747e-5
-1.231, -8.719e-5
-1.230, -8.695e-5
-1.229, -8.676e-5
-1.228, -8.648e-5
-1.227, -8.624e-5
-1.226, -8.599e-5
-1.225, -8.576e-5
-1.224, -8.552e-5
-1.223, -8.529e-5
-1.222, -8.508e-5
-1.221, -8.486e-5
-1.220, -8.466e-5
-1.219, -8.444e-5
-1.218, -8.424e-5
-1.217, -8.405e-5
-1.216, -8.387e-5
-1.215, -8.367e-5
-1.214, -8.347e-5
-1.213, -8.330e-5
-1.212, -8.312e-5
-1.211, -8.293e-5
-1.210, -8.277e-5
-1.209, -8.260e-5
-1.208, -8.243e-5
-1.207, -8.227e-5
-1.206, -8.210e-5
-1.205, -8.197e-5
-1.204, -8.180e-5
-1.203, -8.163e-5
-1.202, -8.150e-5
-1.201, -8.135e-5
-1.200, -8.122e-5
-1.199, -8.108e-5
-1.198, -8.094e-5
-1.197, -8.082e-5
-1.196, -8.068e-5
-1.195, -8.056e-5
-1.194, -8.043e-5
-1.193, -8.031e-5
-1.192, -8.021e-5
-1.191, -8.008e-5
-1.190, -7.998e-5
-1.189, -7.986e-5
-1.188, -7.975e-5
-1.187, -7.965e-5
-1.186, -7.953e-5
-1.185, -7.944e-5
-1.184, -7.933e-5
-1.183, -7.923e-5
-1.182, -7.914e-5
-1.181, -7.904e-5
-1.180, -7.895e-5
-1.179, -7.885e-5
-1.178, -7.877e-5
-1.177, -7.868e-5
-1.176, -7.859e-5
-1.175, -7.850e-5
-1.174, -7.842e-5
-1.173, -7.834e-5
-1.172, -7.826e-5
-1.171, -7.817e-5
-1.170, -7.810e-5
-1.169, -7.802e-5
-1.168, -7.793e-5
-1.167, -7.786e-5
-1.166, -7.778e-5
-1.165, -7.773e-5
-1.164, -7.764e-5
-1.163, -7.757e-5
-1.162, -7.751e-5
-1.161, -7.744e-5
-1.160, -7.737e-5
-1.159, -7.731e-5
-1.158, -7.725e-5
-1.157, -7.719e-5
-1.156, -7.712e-5
-1.155, -7.707e-5
-1.154, -7.701e-5
-1.153, -7.695e-5
-1.152, -7.689e-5
-1.151, -7.684e-5
-1.150, -7.678e-5
-1.149, -7.673e-5
-1.148, -7.666e-5
-1.147, -7.661e-5
-1.146, -7.655e-5
-1.145, -7.650e-5
-1.144, -7.645e-5
-1.143, -7.638e-5
-1.142, -7.634e-5
-1.141, -7.629e-5
-1.140, -7.624e-5
-1.139, -7.620e-5
-1.138, -7.615e-5
-1.137, -7.611e-5
-1.136, -7.606e-5
-1.135, -7.601e-5
-1.134, -7.596e-5
-1.133, -7.591e-5
-1.132, -7.587e-5
-1.131, -7.582e-5
-1.130, -7.577e-5
-1.129, -7.573e-5
-1.128, -7.568e-5
-1.127, -7.563e-5
-1.126, -7.558e-5
-1.125, -7.555e-5
-1.124, -7.550e-5
-1.123, -7.545e-5
-1.122, -7.541e-5
-1.121, -7.537e-5
-1.120, -7.533e-5
-1.119, -7.528e-5
-1.118, -7.523e-5
-1.117, -7.520e-5
-1.116, -7.515e-5
-1.115, -7.511e-5
-1.114, -7.507e-5
-1.113, -7.503e-5
-1.112, -7.499e-5
-1.111, -7.493e-5
-1.110, -7.490e-5
-1.109, -7.486e-5
-1.108, -7.481e-5
-1.107, -7.477e-5
-1.106, -7.472e-5
-1.105, -7.469e-5
-1.104, -7.465e-5
-1.103, -7.460e-5
-1.102, -7.457e-5
-1.101, -7.451e-5
-1.100, -7.448e-5
-1.099, -7.443e-5
-1.098, -7.440e-5
-1.097, -7.436e-5
-1.096, -7.430e-5
-1.095, -7.426e-5
-1.094, -7.422e-5
-1.093, -7.417e-5
-1.092, -7.414e-5
-1.091, -7.408e-5
-1.090, -7.404e-5
-1.089, -7.400e-5
-1.088, -7.396e-5
-1.087, -7.391e-5
-1.086, -7.386e-5
-1.085, -7.382e-5
-1.084, -7.377e-5
-1.083, -7.372e-5
-1.082, -7.368e-5
-1.081, -7.362e-5
-1.080, -7.358e-5
-1.079, -7.352e-5
-1.078, -7.347e-5
-1.077, -7.344e-5
-1.076, -7.337e-5
-1.075, -7.333e-5
-1.074, -7.327e-5
-1.073, -7.321e-5
-1.072, -7.317e-5
-1.071, -7.310e-5
-1.070, -7.305e-5
-1.069, -7.299e-5
-1.068, -7.292e-5
-1.067, -7.286e-5
-1.066, -7.280e-5
-1.065, -7.274e-5
-1.064, -7.268e-5
-1.063, -7.261e-5
-1.062, -7.255e-5
-1.061, -7.248e-5
-1.060, -7.242e-5
-1.059, -7.234e-5
-1.058, -7.226e-5
-1.057, -7.220e-5
-1.056, -7.211e-5
-1.055, -7.204e-5
-1.054, -7.195e-5
-1.053, -7.187e-5
-1.052, -7.179e-5
-1.051, -7.169e-5
-1.050, -7.159e-5
-1.049, -7.150e-5
-1.048, -7.141e-5
-1.047, -7.131e-5
-1.046, -7.121e-5
-1.045, -7.111e-5
-1.044, -7.100e-5
-1.043, -7.089e-5
-1.042, -7.078e-5
-1.041, -7.065e-5
-1.040, -7.054e-5
-1.039, -7.040e-5
-1.038, -7.028e-5
-1.037, -7.017e-5
-1.036, -7.001e-5
-1.035, -6.988e-5
-1.034, -6.973e-5
-1.033, -6.957e-5
-1.032, -6.942e-5
-1.031, -6.924e-5
-1.030, -6.910e-5
-1.029, -6.893e-5
-1.028, -6.875e-5
-1.027, -6.858e-5
-1.026, -6.839e-5
-1.025, -6.820e-5
-1.024, -6.808e-5
-1.023, -6.785e-5
-1.022, -6.763e-5
-1.021, -6.741e-5
-1.020, -6.721e-5
-1.019, -6.695e-5
-1.018, -6.673e-5
-1.017, -6.650e-5
-1.016, -6.624e-5
-1.015, -6.600e-5
-1.014, -6.571e-5
-1.013, -6.548e-5
-1.012, -6.518e-5
-1.011, -6.491e-5
-1.010, -6.463e-5
-1.009, -6.431e-5
-1.008, -6.402e-5
-1.007, -6.368e-5
-1.006, -6.336e-5
-1.005, -6.305e-5
-1.004, -6.268e-5
-1.003, -6.234e-5
-1.002, -6.199e-5
-1.001, -6.159e-5
-1.000, -6.125e-5
-0.999, -6.079e-5
-0.998, -6.037e-5
-0.997, -6.001e-5
-0.996, -5.956e-5
-0.995, -5.917e-5
-0.994, -5.869e-5
-0.993, -5.826e-5
-0.992, -5.780e-5
-0.991, -5.729e-5
-0.990, -5.685e-5
-0.989, -5.635e-5
-0.988, -5.585e-5
-0.987, -5.535e-5
-0.986, -5.483e-5
-0.985, -5.435e-5
-0.984, -5.377e-5
-0.983, -5.323e-5
-0.982, -5.270e-5
-0.981, -5.211e-5
-0.980, -5.156e-5
-0.979, -5.093e-5
-0.978, -5.039e-5
-0.977, -4.977e-5
-0.976, -4.915e-5
-0.975, -4.855e-5
-0.974, -4.792e-5
-0.973, -4.730e-5
-0.972, -4.665e-5
-0.971, -4.599e-5
-0.970, -4.537e-5
-0.969, -4.466e-5
-0.968, -4.405e-5
-0.967, -4.333e-5
-0.966, -4.267e-5
-0.965, -4.203e-5
-0.964, -4.127e-5
-0.963, -4.064e-5
-0.962, -3.994e-5
-0.961, -3.923e-5
-0.960, -3.867e-5
-0.959, -3.789e-5
-0.958, -3.720e-5
-0.957, -3.651e-5
-0.956, -3.580e-5
-0.955, -3.514e-5
-0.954, -3.443e-5
-0.953, -3.377e-5
-0.952, -3.309e-5
-0.951, -3.237e-5
-0.950, -3.171e-5
-0.949, -3.098e-5
-0.948, -3.035e-5
-0.947, -2.957e-5
-0.946, -2.895e-5
-0.945, -2.834e-5
-0.944, -2.768e-5
-0.943, -2.704e-5
-0.942, -2.643e-5
-0.941, -2.577e-5
-0.940, -2.519e-5
-0.939, -2.454e-5
-0.938, -2.397e-5
-0.937, -2.336e-5
-0.936, -2.274e-5
-0.935, -2.223e-5
-0.934, -2.166e-5
-0.933, -2.111e-5
-0.932, -2.054e-5
-0.931, -1.999e-5
-0.930, -1.950e-5
-0.929, -1.894e-5
-0.928, -1.847e-5
-0.927, -1.796e-5
-0.926, -1.744e-5
-0.925, -1.701e-5
-0.924, -1.651e-5
-0.923, -1.612e-5
-0.922, -1.560e-5
-0.921, -1.513e-5
-0.920, -1.477e-5
-0.919, -1.432e-5
-0.918, -1.393e-5
-0.917, -1.355e-5
-0.916, -1.315e-5
-0.915, -1.283e-5
-0.914, -1.242e-5
-0.913, -1.211e-5
-0.912, -1.176e-5
-0.911, -1.141e-5
-0.910, -1.113e-5
-0.909, -1.084e-5
-0.908, -1.054e-5
-0.907, -1.023e-5
-0.906, -9.949e-6
-0.905, -9.704e-6
-0.904, -9.411e-6
-0.903, -9.171e-6
-0.902, -8.929e-6
-0.901, -8.676e-6
-0.900, -8.469e-6
-0.899, -8.230e-6
-0.898, -8.037e-6
-0.897, -7.811e-6
-0.896, -7.579e-6
-0.895, -7.414e-6
-0.894, -7.239e-6
-0.893, -7.095e-6
-0.892, -6.912e-6
-0.891, -6.750e-6
-0.890, -6.625e-6
-0.889, -6.462e-6
-0.888, -6.330e-6
-0.887, -6.196e-6
-0.886, -6.065e-6
-0.885, -5.963e-6
-0.884, -5.836e-6
-0.883, -5.763e-6
-0.882, -5.649e-6
-0.881, -5.542e-6
-0.880, -5.465e-6
-0.879, -5.360e-6
-0.878, -5.292e-6
-0.877, -5.212e-6
-0.876, -5.144e-6
-0.875, -5.090e-6
-0.874, -5.013e-6
-0.873, -4.970e-6
-0.872, -4.920e-6
-0.871, -4.859e-6
-0.870, -4.829e-6
-0.869, -4.788e-6
-0.868, -4.747e-6
-0.867, -4.714e-6
-0.866, -4.681e-6
-0.865, -4.655e-6
-0.864, -4.627e-6
-0.863, -4.592e-6
-0.862, -4.570e-6
-0.861, -4.540e-6
-0.860, -4.525e-6
-0.859, -4.495e-6
-0.858, -4.498e-6
-0.857, -4.476e-6
-0.856, -4.455e-6
-0.855, -4.448e-6
-0.854, -4.428e-6
-0.853, -4.422e-6
-0.852, -4.403e-6
-0.851, -4.389e-6
-0.850, -4.385e-6
-0.849, -4.368e-6
-0.848, -4.366e-6
-0.847, -4.353e-6
-0.846, -4.337e-6
-0.845, -4.325e-6
-0.844, -4.301e-6
-0.843, -4.298e-6
-0.842, -4.289e-6
-0.841, -4.270e-6
-0.840, -4.263e-6
-0.839, -4.243e-6
-0.838, -4.238e-6
-0.837, -4.226e-6
-0.836, -4.205e-6
-0.835, -4.204e-6
-0.834, -4.187e-6
-0.833, -4.178e-6
-0.832, -4.181e-6
-0.831, -4.155e-6
-0.830, -4.156e-6
-0.829, -4.137e-6
-0.828, -4.130e-6
-0.827, -4.121e-6
-0.826, -4.105e-6
-0.825, -4.099e-6
-0.824, -4.079e-6
-0.823, -4.066e-6
-0.822, -4.062e-6
-0.821, -4.047e-6
-0.820, -4.043e-6
-0.819, -4.037e-6
-0.818, -4.023e-6
-0.817, -4.013e-6
-0.816, -3.997e-6
-0.815, -3.997e-6
-0.814, -3.985e-6
-0.813, -3.981e-6
-0.812, -3.978e-6
-0.811, -3.966e-6
-0.810, -3.974e-6
-0.809, -3.962e-6
-0.808, -3.961e-6
-0.807, -3.963e-6
-0.806, -3.950e-6
-0.805, -3.953e-6
-0.804, -3.940e-6
-0.803, -3.940e-6
-0.802, -3.940e-6
-0.801, -3.936e-6
-0.800, -3.944e-6
-0.799, -3.935e-6
-0.798, -3.937e-6
-0.797, -3.948e-6
-0.796, -3.940e-6
-0.795, -3.952e-6
-0.794, -3.945e-6
-0.793, -3.953e-6
-0.792, -3.962e-6
-0.791, -3.961e-6
-0.790, -3.981e-6
-0.789, -3.983e-6
-0.788, -3.991e-6
-0.787, -4.002e-6
-0.786, -4.002e-6
-0.785, -4.020e-6
-0.784, -4.019e-6
-0.783, -4.027e-6
-0.782, -4.036e-6
-0.781, -4.045e-6
-0.780, -4.053e-6
-0.779, -4.054e-6
-0.778, -4.068e-6
-0.777, -4.077e-6
-0.776, -4.084e-6
-0.775, -4.097e-6
-0.774, -4.101e-6
-0.773, -4.115e-6
-0.772, -4.118e-6
-0.771, -4.127e-6
-0.770, -4.147e-6
-0.769, -4.148e-6
-0.768, -4.166e-6
-0.767, -4.177e-6
-0.766, -4.187e-6
-0.765, -4.210e-6
-0.764, -4.211e-6
-0.763, -4.223e-6
-0.762, -4.241e-6
-0.761, -4.240e-6
-0.760, -4.255e-6
-0.759, -4.257e-6
-0.758, -4.273e-6
-0.757, -4.286e-6
-0.756, -4.287e-6
-0.755, -4.310e-6
-0.754, -4.309e-6
-0.753, -4.320e-6
-0.752, -4.335e-6
-0.751, -4.339e-6
-0.750, -4.350e-6
-0.749, -4.360e-6
-0.748, -4.367e-6
-0.747, -4.377e-6
-0.746, -4.384e-6
-0.745, -4.400e-6
-0.744, -4.403e-6
-0.743, -4.409e-6
-0.742, -4.425e-6
-0.741, -4.434e-6
-0.740, -4.446e-6
-0.739, -4.450e-6
-0.738, -4.463e-6
-0.737, -4.471e-6
-0.736, -4.472e-6
-0.735, -4.485e-6
-0.734, -4.487e-6
-0.733, -4.499e-6
-0.732, -4.504e-6
-0.731, -4.504e-6
-0.730, -4.526e-6
-0.729, -4.519e-6
-0.728, -4.530e-6
-0.727, -4.536e-6
-0.726, -4.543e-6
-0.725, -4.556e-6
-0.724, -4.552e-6
-0.723, -4.562e-6
-0.722, -4.578e-6
-0.721, -4.575e-6
-0.720, -4.594e-6
-0.719, -4.594e-6
-0.718, -4.601e-6
-0.717, -4.607e-6
-0.716, -4.606e-6
-0.715, -4.621e-6
-0.714, -4.621e-6
-0.713, -4.627e-6
-0.712, -4.636e-6
-0.711, -4.632e-6
-0.710, -4.647e-6
-0.709, -4.646e-6
-0.708, -4.650e-6
-0.707, -4.652e-6
-0.706, -4.656e-6
-0.705, -4.669e-6
-0.704, -4.672e-6
-0.703, -4.670e-6
-0.702, -4.681e-6
-0.701, -4.684e-6
-0.700, -4.694e-6
-0.699, -4.692e-6
-0.698, -4.704e-6
-0.697, -4.708e-6
-0.696, -4.707e-6
-0.695, -4.715e-6
-0.694, -4.713e-6
-0.693, -4.718e-6
-0.692, -4.716e-6
-0.691, -4.711e-6
-0.690, -4.722e-6
-0.689, -4.721e-6
-0.688, -4.728e-6
-0.687, -4.727e-6
-0.686, -4.729e-6
-0.685, -4.739e-6
-0.684, -4.736e-6
-0.683, -4.738e-6
-0.682, -4.746e-6
-0.681, -4.745e-6
-0.680, -4.753e-6
-0.679, -4.751e-6
-0.678, -4.756e-6
-0.677, -4.762e-6
-0.676, -4.756e-6
-0.675, -4.765e-6
-0.674, -4.765e-6
-0.673, -4.765e-6
-0.672, -4.772e-6
-0.671, -4.767e-6
-0.670, -4.779e-6
-0.669, -4.775e-6
-0.668, -4.776e-6
-0.667, -4.782e-6
-0.666, -4.782e-6
-0.665, -4.789e-6
-0.664, -4.786e-6
-0.663, -4.791e-6
-0.662, -4.796e-6
-0.661, -4.796e-6
-0.660, -4.802e-6
-0.659, -4.801e-6
-0.658, -4.804e-6
-0.657, -4.806e-6
-0.656, -4.803e-6
-0.655, -4.806e-6
-0.654, -4.802e-6
-0.653, -4.809e-6
-0.652, -4.806e-6
-0.651, -4.800e-6
-0.650, -4.809e-6
-0.649, -4.803e-6
-0.648, -4.806e-6
-0.647, -4.806e-6
-0.646, -4.804e-6
-0.645, -4.814e-6
-0.644, -4.804e-6
-0.643, -4.806e-6
-0.642, -4.809e-6
-0.641, -4.802e-6
-0.640, -4.798e-6
-0.639, -4.796e-6
-0.638, -4.799e-6
-0.637, -4.800e-6
-0.636, -4.790e-6
-0.635, -4.793e-6
-0.634, -4.788e-6
-0.633, -4.787e-6
-0.632, -4.786e-6
-0.631, -4.780e-6
-0.630, -4.782e-6
-0.629, -4.775e-6
-0.628, -4.777e-6
-0.627, -4.779e-6
-0.626, -4.772e-6
-0.625, -4.777e-6
-0.624, -4.770e-6
-0.623, -4.770e-6
-0.622, -4.771e-6
-0.621, -4.767e-6
-0.620, -4.769e-6
-0.619, -4.758e-6
-0.618, -4.763e-6
-0.617, -4.756e-6
-0.616, -4.748e-6
-0.615, -4.759e-6
-0.614, -4.749e-6
-0.613, -4.747e-6
-0.612, -4.739e-6
-0.611, -4.733e-6
-0.610, -4.736e-6
-0.609, -4.731e-6
-0.608, -4.730e-6
-0.607, -4.728e-6
-0.606, -4.721e-6
-0.605, -4.730e-6
-0.604, -4.717e-6
-0.603, -4.721e-6
-0.602, -4.724e-6
-0.601, -4.716e-6
-0.600, -4.719e-6
-0.599, -4.707e-6
-0.598, -4.709e-6
-0.597, -4.707e-6
-0.596, -4.697e-6
-0.595, -4.701e-6
-0.594, -4.691e-6
-0.593, -4.690e-6
-0.592, -4.683e-6
-0.591, -4.677e-6
-0.590, -4.680e-6
-0.589, -4.663e-6
-0.588, -4.668e-6
-0.587, -4.668e-6
-0.586, -4.660e-6
-0.585, -4.665e-6
-0.584, -4.656e-6
-0.583, -4.659e-6
-0.582, -4.651e-6
-0.581, -4.645e-6
-0.580, -4.646e-6
-0.579, -4.636e-6
-0.578, -4.637e-6
-0.577, -4.630e-6
-0.576, -4.633e-6
-0.575, -4.629e-6
-0.574, -4.617e-6
-0.573, -4.619e-6
-0.572, -4.613e-6
-0.571, -4.607e-6
-0.570, -4.607e-6
-0.569, -4.596e-6
-0.568, -4.596e-6
-0.567, -4.589e-6
-0.566, -4.583e-6
-0.565, -4.588e-6
-0.564, -4.575e-6
-0.563, -4.577e-6
-0.562, -4.572e-6
-0.561, -4.568e-6
-0.560, -4.567e-6
-0.559, -4.552e-6
-0.558, -4.555e-6
-0.557, -4.548e-6
-0.556, -4.536e-6
-0.555, -4.535e-6
-0.554, -4.526e-6
-0.553, -4.524e-6
-0.552, -4.518e-6
-0.551, -4.514e-6
-0.550, -4.513e-6
-0.549, -4.503e-6
-0.548, -4.501e-6
-0.547, -4.492e-6
-0.546, -4.489e-6
-0.545, -4.488e-6
-0.544, -4.477e-6
-0.543, -4.473e-6
-0.542, -4.467e-6
-0.541, -4.461e-6
-0.540, -4.457e-6
-0.539, -4.446e-6
-0.538, -4.439e-6
-0.537, -4.438e-6
-0.536, -4.432e-6
-0.535, -4.430e-6
-0.534, -4.420e-6
-0.533, -4.421e-6
-0.532, -4.411e-6
-0.531, -4.403e-6
-0.530, -4.406e-6
-0.529, -4.392e-6
-0.528, -4.389e-6
-0.527, -4.379e-6
-0.526, -4.372e-6
-0.525, -4.381e-6
-0.524, -4.361e-6
-0.523, -4.358e-6
-0.522, -4.352e-6
-0.521, -4.342e-6
-0.520, -4.341e-6
-0.519, -4.327e-6
-0.518, -4.329e-6
-0.517, -4.322e-6
-0.516, -4.311e-6
-0.515, -4.313e-6
-0.514, -4.300e-6
-0.513, -4.298e-6
-0.512, -4.284e-6
-0.511, -4.277e-6
-0.510, -4.279e-6
-0.509, -4.267e-6
-0.508, -4.262e-6
-0.507, -4.254e-6
-0.506, -4.249e-6
-0.505, -4.247e-6
-0.504, -4.233e-6
-0.503, -4.229e-6
-0.502, -4.223e-6
-0.501, -4.213e-6
-0.500, -4.208e-6
-0.499, -4.197e-6
-0.498, -4.193e-6
-0.497, -4.181e-6
-0.496, -4.174e-6
-0.495, -4.164e-6
-0.494, -4.155e-6
-0.493, -4.157e-6
-0.492, -4.140e-6
-0.491, -4.132e-6
-0.490, -4.133e-6
-0.489, -4.119e-6
-0.488, -4.117e-6
-0.487, -4.101e-6
-0.486, -4.095e-6
-0.485, -4.095e-6
-0.484, -4.078e-6
-0.483, -4.078e-6
-0.482, -4.066e-6
-0.481, -4.057e-6
-0.480, -4.055e-6
-0.479, -4.037e-6
-0.478, -4.038e-6
-0.477, -4.027e-6
-0.476, -4.018e-6
-0.475, -4.012e-6
-0.474, -4.003e-6
-0.473, -3.999e-6
-0.472, -3.986e-6
-0.471, -3.972e-6
-0.470, -3.969e-6
-0.469, -3.951e-6
-0.468, -3.948e-6
-0.467, -3.931e-6
-0.466, -3.923e-6
-0.465, -3.914e-6
-0.464, -3.900e-6
-0.463, -3.895e-6
-0.462, -3.881e-6
-0.461, -3.874e-6
-0.460, -3.865e-6
-0.459, -3.846e-6
-0.458, -3.846e-6
-0.457, -3.829e-6
-0.456, -3.813e-6
-0.455, -3.806e-6
-0.454, -3.788e-6
-0.453, -3.787e-6
-0.452, -3.770e-6
-0.451, -3.756e-6
-0.450, -3.753e-6
-0.449, -3.735e-6
-0.448, -3.736e-6
-0.447, -3.716e-6
-0.446, -3.700e-6
-0.445, -3.693e-6
-0.444, -3.674e-6
-0.443, -3.665e-6
-0.442, -3.651e-6
-0.441, -3.636e-6
-0.440, -3.629e-6
-0.439, -3.609e-6
-0.438, -3.601e-6
-0.437, -3.590e-6
-0.436, -3.571e-6
-0.435, -3.559e-6
-0.434, -3.548e-6
-0.433, -3.538e-6
-0.432, -3.526e-6
-0.431, -3.512e-6
-0.430, -3.506e-6
-0.429, -3.490e-6
-0.428, -3.485e-6
-0.427, -3.465e-6
-0.426, -3.451e-6
-0.425, -3.437e-6
-0.424, -3.419e-6
-0.423, -3.410e-6
-0.422, -3.398e-6
-0.421, -3.381e-6
-0.420, -3.371e-6
-0.419, -3.346e-6
-0.418, -3.339e-6
-0.417, -3.319e-6
-0.416, -3.305e-6
-0.415, -3.295e-6
-0.414, -3.273e-6
-0.413, -3.269e-6
-0.412, -3.247e-6
-0.411, -3.230e-6
-0.410, -3.246e-6
-0.409, -3.209e-6
-0.408, -3.192e-6
-0.407, -3.173e-6
-0.406, -3.152e-6
-0.405, -3.142e-6
-0.404, -3.119e-6
-0.403, -3.108e-6
-0.402, -3.083e-6
-0.401, -3.066e-6
-0.400, -3.054e-6
-0.399, -3.029e-6
-0.398, -3.018e-6
-0.397, -3.005e-6
-0.396, -2.980e-6
-0.395, -2.965e-6
-0.394, -2.943e-6
-0.393, -2.930e-6
-0.392, -2.908e-6
-0.391, -2.888e-6
-0.390, -2.877e-6
-0.389, -2.854e-6
-0.388, -2.838e-6
-0.387, -2.814e-6
-0.386, -2.798e-6
-0.385, -2.783e-6
-0.384, -2.753e-6
-0.383, -2.742e-6
-0.382, -2.718e-6
-0.381, -2.699e-6
-0.380, -2.682e-6
-0.379, -2.655e-6
-0.378, -2.645e-6
-0.377, -2.623e-6
-0.376, -2.603e-6
-0.375, -2.585e-6
-0.374, -2.557e-6
-0.373, -2.550e-6
-0.372, -2.523e-6
-0.371, -2.508e-6
-0.370, -2.489e-6
-0.369, -2.462e-6
-0.368, -2.449e-6
-0.367, -2.422e-6
-0.366, -2.403e-6
-0.365, -2.389e-6
-0.364, -2.362e-6
-0.363, -2.345e-6
-0.362, -2.322e-6
-0.361, -2.301e-6
-0.360, -2.286e-6
-0.359, -2.262e-6
-0.358, -2.243e-6
-0.357, -2.218e-6
-0.356, -2.198e-6
-0.355, -2.178e-6
-0.354, -2.153e-6
-0.353, -2.139e-6
-0.352, -2.114e-6
-0.351, -2.095e-6
-0.350, -2.073e-6
-0.349, -2.050e-6
-0.348, -2.033e-6
-0.347, -2.010e-6
-0.346, -1.997e-6
-0.345, -1.974e-6
-0.344, -1.947e-6
-0.343, -1.932e-6
-0.342, -1.909e-6
-0.341, -1.886e-6
-0.340, -1.867e-6
-0.339, -1.841e-6
-0.338, -1.825e-6
-0.337, -1.802e-6
-0.336, -1.784e-6
-0.335, -1.760e-6
-0.334, -1.730e-6
-0.333, -1.714e-6
-0.332, -1.689e-6
-0.331, -1.668e-6
-0.330, -1.652e-6
-0.329, -1.623e-6
-0.328, -1.609e-6
-0.327, -1.579e-6
-0.326, -1.562e-6
-0.325, -1.546e-6
-0.324, -1.514e-6
-0.323, -1.496e-6
-0.322, -1.473e-6
-0.321, -1.450e-6
-0.320, -1.440e-6
-0.319, -1.406e-6
-0.318, -1.393e-6
-0.317, -1.365e-6
-0.316, -1.345e-6
-0.315, -1.326e-6
-0.314, -1.300e-6
-0.313, -1.289e-6
-0.312, -1.256e-6
-0.311, -1.235e-6
-0.310, -1.219e-6
-0.309, -1.191e-6
-0.308, -1.172e-6
-0.307, -1.142e-6
-0.306, -1.125e-6
-0.305, -1.105e-6
-0.304, -1.080e-6
-0.303, -1.064e-6
-0.302, -1.038e-6
-0.301, -1.020e-6
-0.300, -9.960e-7
-0.299, -9.704e-7
-0.298, -9.597e-7
-0.297, -9.315e-7
-0.296, -9.115e-7
-0.295, -9.000e-7
-0.294, -8.689e-7
-0.293, -8.541e-7
-0.292, -8.280e-7
-0.291, -8.093e-7
-0.290, -7.932e-7
-0.289, -7.655e-7
-0.288, -7.529e-7
-0.287, -7.218e-7
-0.286, -7.024e-7
-0.285, -6.879e-7
-0.284, -6.597e-7
-0.283, -6.432e-7
-0.282, -6.149e-7
-0.281, -5.976e-7
-0.280, -5.838e-7
-0.279, -5.543e-7
-0.278, -5.457e-7
-0.277, -5.166e-7
-0.276, -5.000e-7
-0.275, -4.831e-7
-0.274, -4.606e-7
-0.273, -4.467e-7
-0.272, -4.215e-7
-0.271, -3.996e-7
-0.270, -3.859e-7
-0.269, -3.688e-7
-0.268, -3.491e-7
-0.267, -3.240e-7
-0.266, -3.092e-7
-0.265, -2.888e-7
-0.264, -2.620e-7
-0.263, -2.511e-7
-0.262, -2.281e-7
-0.261, -2.104e-7
-0.260, -1.919e-7
-0.259, -1.668e-7
-0.258, -1.575e-7
-0.257, -1.304e-7
-0.256, -1.174e-7
-0.255, -1.010e-7
-0.254, -7.434e-8
-0.253, -6.410e-8
-0.252, -3.126e-8
-0.251, -1.811e-8
-0.250, -3.489e-9
-0.249, 2.009e-8
-0.248, 2.964e-8
-0.247, 5.752e-8
-0.246, 7.272e-8
-0.245, 8.704e-8
-0.244, 1.132e-7
-0.243, 1.173e-7
-0.242, 1.437e-7
-0.241, 1.558e-7
-0.240, 1.730e-7
-0.239, 1.979e-7
-0.238, 2.099e-7
-0.237, 2.319e-7
-0.236, 2.496e-7
-0.235, 2.649e-7
-0.234, 2.835e-7
-0.233, 2.948e-7
-0.232, 3.207e-7
-0.231, 3.406e-7
-0.230, 3.544e-7
-0.229, 3.724e-7
-0.228, 3.841e-7
-0.227, 4.059e-7
-0.226, 4.203e-7
-0.225, 4.351e-7
-0.224, 4.576e-7
-0.223, 4.694e-7
-0.222, 4.899e-7
-0.221, 5.036e-7
-0.220, 5.185e-7
-0.219, 5.402e-7
-0.218, 5.438e-7
-0.217, 5.706e-7
-0.216, 5.844e-7
-0.215, 6.022e-7
-0.214, 6.214e-7
-0.213, 6.284e-7
-0.212, 6.505e-7
-0.211, 6.667e-7
-0.210, 6.819e-7
-0.209, 7.044e-7
-0.208, 7.115e-7
-0.207, 7.371e-7
-0.206, 7.512e-7
-0.205, 7.468e-7
-0.204, 7.787e-7
-0.203, 7.883e-7
-0.202, 8.099e-7
-0.201, 8.241e-7
-0.200, 8.366e-7
-0.199, 8.580e-7
-0.198, 8.682e-7
-0.197, 8.864e-7
-0.196, 9.010e-7
-0.195, 9.173e-7
-0.194, 9.337e-7
-0.193, 9.453e-7
-0.192, 9.589e-7
-0.191, 9.781e-7
-0.190, 9.913e-7
-0.189, 1.008e-6
-0.188, 1.021e-6
-0.187, 1.040e-6
-0.186, 1.050e-6
-0.185, 1.071e-6
-0.184, 1.086e-6
-0.183, 1.095e-6
-0.182, 1.116e-6
-0.181, 1.124e-6
-0.180, 1.141e-6
-0.179, 1.167e-6
-0.178, 1.172e-6
-0.177, 1.192e-6
-0.176, 1.206e-6
-0.175, 1.220e-6
-0.174, 1.239e-6
-0.173, 1.244e-6
-0.172, 1.268e-6
-0.171, 1.281e-6
-0.170, 1.294e-6
-0.169, 1.313e-6
-0.168, 1.320e-6
-0.167, 1.339e-6
-0.166, 1.350e-6
-0.165, 1.364e-6
-0.164, 1.385e-6
-0.163, 1.394e-6
-0.162, 1.413e-6
-0.161, 1.426e-6
-0.160, 1.441e-6
-0.159, 1.460e-6
-0.158, 1.468e-6
-0.157, 1.485e-6
-0.156, 1.499e-6
-0.155, 1.514e-6
-0.154, 1.530e-6
-0.153, 1.539e-6
-0.152, 1.561e-6
-0.151, 1.573e-6
-0.150, 1.587e-6
-0.149, 1.601e-6
-0.148, 1.614e-6
-0.147, 1.632e-6
-0.146, 1.642e-6
-0.145, 1.659e-6
-0.144, 1.677e-6
-0.143, 1.690e-6
-0.142, 1.709e-6
-0.141, 1.712e-6
-0.140, 1.731e-6
-0.139, 1.751e-6
-0.138, 1.758e-6
-0.137, 1.779e-6
-0.136, 1.788e-6
-0.135, 1.806e-6
-0.134, 1.823e-6
-0.133, 1.831e-6
-0.132, 1.851e-6
-0.131, 1.861e-6
-0.130, 1.874e-6
-0.129, 1.893e-6
-0.128, 1.907e-6
-0.127, 1.923e-6
-0.126, 1.934e-6
-0.125, 1.945e-6
-0.124, 1.966e-6
-0.123, 1.973e-6
-0.122, 1.991e-6
-0.121, 2.002e-6
-0.120, 2.017e-6
-0.119, 2.037e-6
-0.118, 2.045e-6
-0.117, 2.063e-6
-0.116, 2.074e-6
-0.115, 2.081e-6
-0.114, 2.100e-6
-0.113, 2.111e-6
-0.112, 2.136e-6
-0.111, 2.146e-6
-0.110, 2.160e-6
-0.109, 2.178e-6
-0.108, 2.188e-6
-0.107, 2.208e-6
-0.106, 2.217e-6
-0.105, 2.233e-6
-0.104, 2.251e-6
-0.103, 2.263e-6
-0.102, 2.283e-6
-0.101, 2.293e-6
-0.100, 2.309e-6
-0.099, 2.324e-6
-0.098, 2.331e-6
-0.097, 2.351e-6
-0.096, 2.361e-6
-0.095, 2.379e-6
-0.094, 2.397e-6
-0.093, 2.402e-6
-0.092, 2.428e-6
-0.091, 2.438e-6
-0.090, 2.446e-6
-0.089, 2.466e-6
-0.088, 2.473e-6
-0.087, 2.494e-6
-0.086, 2.507e-6
-0.085, 2.519e-6
-0.084, 2.543e-6
-0.083, 2.550e-6
-0.082, 2.569e-6
-0.081, 2.577e-6
-0.080, 2.592e-6
-0.079, 2.611e-6
-0.078, 2.617e-6
-0.077, 2.644e-6
-0.076, 2.655e-6
-0.075, 2.671e-6
-0.074, 2.686e-6
-0.073, 2.694e-6
-0.072, 2.714e-6
-0.071, 2.724e-6
-0.070, 2.740e-6
-0.069, 2.756e-6
-0.068, 2.765e-6
-0.067, 2.788e-6
-0.066, 2.795e-6
-0.065, 2.813e-6
-0.064, 2.821e-6
-0.063, 2.833e-6
-0.062, 2.857e-6
-0.061, 2.862e-6
-0.060, 2.882e-6
-0.059, 2.900e-6
-0.058, 2.907e-6
-0.057, 2.929e-6
-0.056, 2.936e-6
-0.055, 2.951e-6
-0.054, 2.968e-6
-0.053, 2.976e-6
-0.052, 2.999e-6
-0.051, 3.007e-6
-0.050, 3.022e-6
-0.049, 3.039e-6
-0.048, 3.047e-6
-0.047, 3.066e-6
-0.046, 3.074e-6
-0.045, 3.088e-6
-0.044, 3.106e-6
-0.043, 3.115e-6
-0.042, 3.140e-6
-0.041, 3.148e-6
-0.040, 3.165e-6
-0.039, 3.177e-6
-0.038, 3.186e-6
-0.037, 3.208e-6
-0.036, 3.218e-6
-0.035, 3.235e-6
-0.034, 3.249e-6
-0.033, 3.261e-6
-0.032, 3.278e-6
-0.031, 3.290e-6
-0.030, 3.304e-6
-0.029, 3.317e-6
-0.028, 3.328e-6
-0.027, 3.346e-6
-0.026, 3.358e-6
-0.025, 3.374e-6
-0.024, 3.386e-6
-0.023, 3.397e-6
-0.022, 3.416e-6
-0.021, 3.424e-6
-0.020, 3.440e-6
-0.019, 3.455e-6
-0.018, 3.463e-6
-0.017, 3.482e-6
-0.016, 3.494e-6
-0.015, 3.513e-6
-0.014, 3.527e-6
-0.013, 3.530e-6
-0.012, 3.554e-6
-0.011, 3.561e-6
-0.010, 3.576e-6
-0.009, 3.593e-6
-0.008, 3.601e-6
-0.007, 3.624e-6
-0.006, 3.634e-6
-0.005, 3.649e-6
-0.004, 3.665e-6
-0.003, 3.675e-6
-0.002, 3.693e-6
-0.001, 3.699e-6
-0.000, 3.696e-6
0.001, 3.727e-6
0.002, 3.736e-6
0.003, 3.755e-6
0.004, 3.765e-6
0.005, 3.782e-6
0.006, 3.794e-6
0.007, 3.804e-6
0.008, 3.825e-6
0.009, 3.837e-6
0.010, 3.852e-6
0.011, 3.865e-6
0.012, 3.876e-6
0.013, 3.894e-6
0.014, 3.903e-6
0.015, 3.920e-6
0.016, 3.933e-6
0.017, 3.947e-6
0.018, 3.965e-6
0.019, 3.970e-6
0.020, 3.988e-6
0.021, 4.004e-6
0.022, 4.013e-6
0.023, 4.031e-6
0.024, 4.038e-6
0.025, 4.056e-6
0.026, 4.069e-6
0.027, 4.080e-6
0.028, 4.101e-6
0.029, 4.108e-6
0.030, 4.124e-6
0.031, 4.138e-6
0.032, 4.147e-6
0.033, 4.170e-6
0.034, 4.175e-6
0.035, 4.190e-6
0.036, 4.206e-6
0.037, 4.218e-6
0.038, 4.229e-6
0.039, 4.242e-6
0.040, 4.257e-6
0.041, 4.272e-6
0.042, 4.280e-6
0.043, 4.296e-6
0.044, 4.305e-6
0.045, 4.318e-6
0.046, 4.334e-6
0.047, 4.343e-6
0.048, 4.360e-6
0.049, 4.373e-6
0.050, 4.386e-6
0.051, 4.397e-6
0.052, 4.407e-6
0.053, 4.426e-6
0.054, 4.429e-6
0.055, 4.448e-6
0.056, 4.464e-6
0.057, 4.475e-6
0.058, 4.495e-6
0.059, 4.498e-6
0.060, 4.520e-6
0.061, 4.532e-6
0.062, 4.539e-6
0.063, 4.558e-6
0.064, 4.559e-6
0.065, 4.582e-6
0.066, 4.598e-6
0.067, 4.605e-6
0.068, 4.626e-6
0.069, 4.635e-6
0.070, 4.647e-6
0.071, 4.660e-6
0.072, 4.671e-6
0.073, 4.690e-6
0.074, 4.696e-6
0.075, 4.712e-6
0.076, 4.730e-6
0.077, 4.742e-6
0.078, 4.755e-6
0.079, 4.764e-6
0.080, 4.778e-6
0.081, 4.795e-6
0.082, 4.802e-6
0.083, 4.817e-6
0.084, 4.832e-6
0.085, 4.847e-6
0.086, 4.859e-6
0.087, 4.867e-6
0.088, 4.885e-6
0.089, 4.888e-6
0.090, 4.905e-6
0.091, 4.917e-6
0.092, 4.928e-6
0.093, 4.945e-6
0.094, 4.954e-6
0.095, 4.971e-6
0.096, 4.984e-6
0.097, 4.992e-6
0.098, 5.008e-6
0.099, 5.014e-6
0.100, 5.032e-6
0.101, 5.045e-6
0.102, 5.058e-6
0.103, 5.080e-6
0.104, 5.082e-6
0.105, 5.103e-6
0.106, 5.114e-6
0.107, 5.121e-6
0.108, 5.141e-6
0.109, 5.148e-6
0.110, 5.164e-6
0.111, 5.177e-6
0.112, 5.185e-6
0.113, 5.202e-6
0.114, 5.210e-6
0.115, 5.219e-6
0.116, 5.237e-6
0.117, 5.247e-6
0.118, 5.263e-6
0.119, 5.269e-6
0.120, 5.286e-6
0.121, 5.302e-6
0.122, 5.308e-6
0.123, 5.326e-6
0.124, 5.333e-6
0.125, 5.351e-6
0.126, 5.360e-6
0.127, 5.370e-6
0.128, 5.393e-6
0.129, 5.396e-6
0.130, 5.413e-6
0.131, 5.421e-6
0.132, 5.432e-6
0.133, 5.452e-6
0.134, 5.455e-6
0.135, 5.472e-6
0.136, 5.486e-6
0.137, 5.494e-6
0.138, 5.510e-6
0.139, 5.513e-6
0.140, 5.530e-6
0.141, 5.537e-6
0.142, 5.547e-6
0.143, 5.567e-6
0.144, 5.571e-6
0.145, 5.591e-6
0.146, 5.603e-6
0.147, 5.608e-6
0.148, 5.629e-6
0.149, 5.633e-6
0.150, 5.645e-6
0.151, 5.659e-6
0.152, 5.667e-6
0.153, 5.683e-6
0.154, 5.687e-6
0.155, 5.702e-6
0.156, 5.716e-6
0.157, 5.722e-6
0.158, 5.739e-6
0.159, 5.745e-6
0.160, 5.758e-6
0.161, 5.769e-6
0.162, 5.776e-6
0.163, 5.791e-6
0.164, 5.796e-6
0.165, 5.813e-6
0.166, 5.816e-6
0.167, 5.827e-6
0.168, 5.843e-6
0.169, 5.848e-6
0.170, 5.861e-6
0.171, 5.870e-6
0.172, 5.878e-6
0.173, 5.897e-6
0.174, 5.901e-6
0.175, 5.914e-6
0.176, 5.924e-6
0.177, 5.935e-6
0.178, 5.949e-6
0.179, 5.957e-6
0.180, 5.970e-6
0.181, 5.979e-6
0.182, 5.985e-6
0.183, 6.001e-6
0.184, 6.006e-6
0.185, 6.019e-6
0.186, 6.027e-6
0.187, 6.036e-6
0.188, 6.053e-6
0.189, 6.057e-6
0.190, 6.073e-6
0.191, 6.080e-6
0.192, 6.083e-6
0.193, 6.102e-6
0.194, 6.107e-6
0.195, 6.119e-6
0.196, 6.129e-6
0.197, 6.138e-6
0.198, 6.152e-6
0.199, 6.155e-6
0.200, 6.172e-6
0.201, 6.182e-6
0.202, 6.189e-6
0.203, 6.204e-6
0.204, 6.208e-6
0.205, 6.211e-6
0.206, 6.229e-6
0.207, 6.237e-6
0.208, 6.254e-6
0.209, 6.261e-6
0.210, 6.276e-6
0.211, 6.284e-6
0.212, 6.295e-6
0.213, 6.311e-6
0.214, 6.315e-6
0.215, 6.331e-6
0.216, 6.343e-6
0.217, 6.348e-6
0.218, 6.363e-6
0.219, 6.371e-6
0.220, 6.393e-6
0.221, 6.404e-6
0.222, 6.416e-6
0.223, 6.434e-6
0.224, 6.441e-6
0.225, 6.462e-6
0.226, 6.472e-6
0.227, 6.481e-6
0.228, 6.504e-6
0.229, 6.512e-6
0.230, 6.541e-6
0.231, 6.551e-6
0.232, 6.565e-6
0.233, 6.587e-6
0.234, 6.594e-6
0.235, 6.617e-6
0.236, 6.634e-6
0.237, 6.648e-6
0.238, 6.670e-6
0.239, 6.687e-6
0.240, 6.709e-6
0.241, 6.728e-6
0.242, 6.745e-6
0.243, 6.764e-6
0.244, 6.782e-6
0.245, 6.812e-6
0.246, 6.829e-6
0.247, 6.850e-6
0.248, 6.878e-6
0.249, 6.895e-6
0.250, 6.923e-6
0.251, 6.944e-6
0.252, 6.969e-6
0.253, 7.000e-6
0.254, 7.019e-6
0.255, 7.062e-6
0.256, 7.079e-6
0.257, 7.110e-6
0.258, 7.145e-6
0.259, 7.168e-6
0.260, 7.209e-6
0.261, 7.235e-6
0.262, 7.267e-6
0.263, 7.305e-6
0.264, 7.332e-6
0.265, 7.383e-6
0.266, 7.412e-6
0.267, 7.443e-6
0.268, 7.495e-6
0.269, 7.520e-6
0.270, 7.574e-6
0.271, 7.614e-6
0.272, 7.657e-6
0.273, 7.709e-6
0.274, 7.751e-6
0.275, 7.807e-6
0.276, 7.853e-6
0.277, 7.904e-6
0.278, 7.954e-6
0.279, 8.007e-6
0.280, 8.070e-6
0.281, 8.133e-6
0.282, 8.198e-6
0.283, 8.251e-6
0.284, 8.309e-6
0.285, 8.386e-6
0.286, 8.442e-6
0.287, 8.517e-6
0.288, 8.586e-6
0.289, 8.660e-6
0.290, 8.743e-6
0.291, 8.803e-6
0.292, 8.894e-6
0.293, 8.976e-6
0.294, 9.043e-6
0.295, 9.141e-6
0.296, 9.223e-6
0.297, 9.329e-6
0.298, 9.421e-6
0.299, 9.513e-6
0.300, 9.629e-6
0.301, 9.720e-6
0.302, 9.835e-6
0.303, 9.946e-6
0.304, 1.006e-5
0.305, 1.019e-5
0.306, 1.030e-5
0.307, 1.045e-5
0.308, 1.058e-5
0.309, 1.070e-5
0.310, 1.085e-5
0.311, 1.098e-5
0.312, 1.113e-5
0.313, 1.128e-5
0.314, 1.144e-5
0.315, 1.161e-5
0.316, 1.176e-5
0.317, 1.195e-5
0.318, 1.212e-5
0.319, 1.230e-5
0.320, 1.247e-5
0.321, 1.267e-5
0.322, 1.289e-5
0.323, 1.309e-5
0.324, 1.330e-5
0.325, 1.356e-5
0.326, 1.375e-5
0.327, 1.401e-5
0.328, 1.425e-5
0.329, 1.451e-5
0.330, 1.480e-5
0.331, 1.502e-5
0.332, 1.535e-5
0.333, 1.570e-5
0.334, 1.595e-5
0.335, 1.628e-5
0.336, 1.654e-5
0.337, 1.695e-5
0.338, 1.726e-5
0.339, 1.759e-5
0.340, 1.800e-5
0.341, 1.834e-5
0.342, 1.877e-5
0.343, 1.916e-5
0.344, 1.957e-5
0.345, 2.001e-5
0.346, 2.038e-5
0.347, 2.089e-5
0.348, 2.137e-5
0.349, 2.185e-5
0.350, 2.241e-5
0.351, 2.287e-5
0.352, 2.346e-5
0.353, 2.404e-5
0.354, 2.461e-5
0.355, 2.523e-5
0.356, 2.580e-5
0.357, 2.650e-5
0.358, 2.707e-5
0.359, 2.776e-5
0.360, 2.847e-5
0.361, 2.911e-5
0.362, 2.996e-5
0.363, 3.065e-5
0.364, 3.147e-5
0.365, 3.234e-5
0.366, 3.304e-5
0.367, 3.405e-5
0.368, 3.480e-5
0.369, 3.586e-5
0.370, 3.678e-5
0.371, 3.744e-5
0.372, 3.865e-5
0.373, 3.955e-5
0.374, 4.058e-5
0.375, 4.168e-5
0.376, 4.262e-5
0.377, 4.393e-5
0.378, 4.481e-5
0.379, 4.600e-5
0.380, 4.736e-5
0.381, 4.824e-5
0.382, 4.969e-5
0.383, 5.084e-5
0.384, 5.242e-5
0.385, 5.361e-5
0.386, 5.468e-5
0.387, 5.618e-5
0.388, 5.736e-5
0.389, 5.884e-5
0.390, 6.021e-5
0.391, 6.140e-5
0.392, 6.305e-5
0.393, 6.427e-5
0.394, 6.571e-5
0.395, 6.720e-5
0.396, 6.840e-5
0.397, 6.973e-5
0.398, 7.128e-5
0.399, 7.284e-5
0.400, 7.431e-5
0.401, 7.558e-5
0.402, 7.736e-5
0.403, 7.845e-5
0.404, 8.010e-5
0.405, 8.149e-5
0.406, 8.289e-5
0.407, 8.463e-5
0.408, 8.554e-5
0.409, 8.689e-5
0.410, 8.709e-5
0.411, 8.908e-5
0.412, 9.092e-5
0.413, 9.192e-5
0.414, 9.347e-5
0.415, 9.480e-5
0.416, 9.568e-5
0.417, 9.750e-5
0.418, 9.837e-5
0.419, 9.955e-5
0.420, 1.006e-4
0.421, 1.017e-4
0.422, 1.029e-4
0.423, 1.036e-4
0.424, 1.047e-4
0.425, 1.057e-4
0.426, 1.064e-4
0.427, 1.076e-4
0.428, 1.082e-4
0.429, 1.091e-4
0.430, 1.099e-4
0.431, 1.104e-4
0.432, 1.112e-4
0.433, 1.117e-4
0.434, 1.124e-4
0.435, 1.133e-4
0.436, 1.133e-4
0.437, 1.141e-4
0.438, 1.142e-4
0.439, 1.146e-4
0.440, 1.149e-4
0.441, 1.150e-4
0.442, 1.154e-4
0.443, 1.154e-4
0.444, 1.157e-4
0.445, 1.158e-4
0.446, 1.158e-4
0.447, 1.161e-4
0.448, 1.155e-4
0.449, 1.157e-4
0.450, 1.158e-4
0.451, 1.156e-4
0.452, 1.157e-4
0.453, 1.154e-4
0.454, 1.152e-4
0.455, 1.151e-4
0.456, 1.147e-4
0.457, 1.146e-4
0.458, 1.142e-4
0.459, 1.140e-4
0.460, 1.137e-4
0.461, 1.131e-4
0.462, 1.130e-4
0.463, 1.126e-4
0.464, 1.122e-4
0.465, 1.119e-4
0.466, 1.113e-4
0.467, 1.109e-4
0.468, 1.105e-4
0.469, 1.100e-4
0.470, 1.096e-4
0.471, 1.091e-4
0.472, 1.087e-4
0.473, 1.081e-4
0.474, 1.076e-4
0.475, 1.071e-4
0.476, 1.065e-4
0.477, 1.061e-4
0.478, 1.055e-4
0.479, 1.050e-4
0.480, 1.045e-4
0.481, 1.039e-4
0.482, 1.035e-4
0.483, 1.028e-4
0.484, 1.024e-4
0.485, 1.018e-4
0.486, 1.013e-4
0.487, 1.008e-4
0.488, 1.002e-4
0.489, 9.967e-5
0.490, 9.912e-5
0.491, 9.854e-5
0.492, 9.807e-5
0.493, 9.748e-5
0.494, 9.696e-5
0.495, 9.647e-5
0.496, 9.587e-5
0.497, 9.544e-5
0.498, 9.487e-5
0.499, 9.428e-5
0.500, 9.383e-5
0.501, 9.331e-5
0.502, 9.284e-5
0.503, 9.234e-5
0.504, 9.185e-5
0.505, 9.140e-5
0.506, 9.088e-5
0.507, 9.045e-5
0.508, 8.996e-5
0.509, 8.948e-5
0.510, 8.903e-5
0.511, 8.853e-5
0.512, 8.813e-5
0.513, 8.764e-5
0.514, 8.720e-5
0.515, 8.675e-5
0.516, 8.630e-5
0.517, 8.589e-5
0.518, 8.543e-5
0.519, 8.501e-5
0.520, 8.462e-5
0.521, 8.419e-5
0.522, 8.383e-5
0.523, 8.341e-5
0.524, 8.303e-5
0.525, 8.263e-5
0.526, 8.225e-5
0.527, 8.190e-5
0.528, 8.150e-5
0.529, 8.114e-5
0.530, 8.079e-5
0.531, 8.038e-5
0.532, 8.004e-5
0.533, 7.967e-5
0.534, 7.931e-5
0.535, 7.897e-5
0.536, 7.861e-5
0.537, 7.830e-5
0.538, 7.795e-5
0.539, 7.761e-5
0.540, 7.730e-5
0.541, 7.697e-5
0.542, 7.667e-5
0.543, 7.636e-5
0.544, 7.605e-5
0.545, 7.577e-5
0.546, 7.546e-5
0.547, 7.517e-5
0.548, 7.488e-5
0.549, 7.459e-5
0.550, 7.430e-5
0.551, 7.400e-5
0.552, 7.374e-5
0.553, 7.345e-5
0.554, 7.317e-5
0.555, 7.290e-5
0.556, 7.263e-5
0.557, 7.237e-5
0.558, 7.210e-5
0.559, 7.185e-5
0.560, 7.161e-5
0.561, 7.135e-5
0.562, 7.112e-5
0.563, 7.087e-5
0.564, 7.064e-5
0.565, 7.041e-5
0.566, 7.017e-5
0.567, 6.994e-5
0.568, 6.971e-5
0.569, 6.948e-5
0.570, 6.927e-5
0.571, 6.903e-5
0.572, 6.882e-5
0.573, 6.860e-5
0.574, 6.839e-5
0.575, 6.819e-5
0.576, 6.796e-5
0.577, 6.777e-5
0.578, 6.757e-5
0.579, 6.736e-5
0.580, 6.718e-5
0.581, 6.698e-5
0.582, 6.679e-5
0.583, 6.660e-5
0.584, 6.641e-5
0.585, 6.624e-5
0.586, 6.605e-5
0.587, 6.587e-5
0.588, 6.570e-5
0.589, 6.552e-5
0.590, 6.536e-5
0.591, 6.518e-5
0.592, 6.502e-5
0.593, 6.485e-5
0.594, 6.468e-5
0.595, 6.452e-5
0.596, 6.436e-5
0.597, 6.421e-5
0.598, 6.405e-5
0.599, 6.389e-5
0.600, 6.375e-5
0.601, 6.359e-5
0.602, 6.345e-5
0.603, 6.331e-5
0.604, 6.317e-5
0.605, 6.304e-5
0.606, 6.289e-5
0.607, 6.275e-5
0.608, 6.261e-5
0.609, 6.247e-5
0.610, 6.234e-5
0.611, 6.219e-5
0.612, 6.206e-5
0.613, 6.193e-5
0.614, 6.177e-5
0.615, 6.166e-5
0.616, 6.153e-5
0.617, 6.142e-5
0.618, 6.129e-5
0.619, 6.117e-5
0.620, 6.107e-5
0.621, 6.095e-5
0.622, 6.084e-5
0.623, 6.072e-5
0.624, 6.061e-5
0.625, 6.050e-5
0.626, 6.038e-5
0.627, 6.026e-5
0.628, 6.015e-5
0.629, 6.003e-5
0.630, 5.991e-5
0.631, 5.978e-5
0.632, 5.967e-5
0.633, 5.956e-5
0.634, 5.944e-5
0.635, 5.933e-5
0.636, 5.922e-5
0.637, 5.911e-5
0.638, 5.901e-5
0.639, 5.891e-5
0.640, 5.883e-5
0.641, 5.873e-5
0.642, 5.863e-5
0.643, 5.854e-5
0.644, 5.844e-5
0.645, 5.835e-5
0.646, 5.825e-5
0.647, 5.816e-5
0.648, 5.806e-5
0.649, 5.796e-5
0.650, 5.786e-5
0.651, 5.775e-5
0.652, 5.764e-5
0.653, 5.755e-5
0.654, 5.745e-5
0.655, 5.736e-5
0.656, 5.725e-5
0.657, 5.716e-5
0.658, 5.708e-5
0.659, 5.698e-5
0.660, 5.690e-5
0.661, 5.681e-5
0.662, 5.674e-5
0.663, 5.666e-5
0.664, 5.658e-5
0.665, 5.651e-5
0.666, 5.642e-5
0.667, 5.635e-5
0.668, 5.628e-5
0.669, 5.619e-5
0.670, 5.612e-5
0.671, 5.603e-5
0.672, 5.594e-5
0.673, 5.586e-5
0.674, 5.576e-5
0.675, 5.568e-5
0.676, 5.560e-5
0.677, 5.552e-5
0.678, 5.543e-5
0.679, 5.535e-5
0.680, 5.529e-5
0.681, 5.521e-5
0.682, 5.515e-5
0.683, 5.508e-5
0.684, 5.501e-5
0.685, 5.495e-5
0.686, 5.487e-5
0.687, 5.482e-5
0.688, 5.475e-5
0.689, 5.469e-5
0.690, 5.463e-5
0.691, 5.457e-5
0.692, 5.450e-5
0.693, 5.443e-5
0.694, 5.436e-5
0.695, 5.430e-5
0.696, 5.421e-5
0.697, 5.416e-5
0.698, 5.409e-5
0.699, 5.401e-5
0.700, 5.396e-5
0.701, 5.389e-5
0.702, 5.383e-5
0.703, 5.377e-5
0.704, 5.370e-5
0.705, 5.367e-5
0.706, 5.361e-5
0.707, 5.356e-5
0.708, 5.350e-5
0.709, 5.345e-5
0.710, 5.340e-5
0.711, 5.333e-5
0.712, 5.328e-5
0.713, 5.323e-5
0.714, 5.317e-5
0.715, 5.313e-5
0.716, 5.307e-5
0.717, 5.303e-5
0.718, 5.298e-5
0.719, 5.292e-5
0.720, 5.288e-5
0.721, 5.283e-5
0.722, 5.279e-5
0.723, 5.274e-5
0.724, 5.269e-5
0.725, 5.265e-5
0.726, 5.260e-5
0.727, 5.256e-5
0.728, 5.252e-5
0.729, 5.248e-5
0.730, 5.245e-5
0.731, 5.239e-5
0.732, 5.236e-5
0.733, 5.231e-5
0.734, 5.227e-5
0.735, 5.224e-5
0.736, 5.219e-5
0.737, 5.215e-5
0.738, 5.211e-5
0.739, 5.205e-5
0.740, 5.202e-5
0.741, 5.198e-5
0.742, 5.196e-5
0.743, 5.192e-5
0.744, 5.188e-5
0.745, 5.186e-5
0.746, 5.181e-5
0.747, 5.179e-5
0.748, 5.175e-5
0.749, 5.171e-5
0.750, 5.169e-5
0.751, 5.164e-5
0.752, 5.161e-5
0.753, 5.157e-5
0.754, 5.153e-5
0.755, 5.149e-5
0.756, 5.145e-5
0.757, 5.142e-5
0.758, 5.139e-5
0.759, 5.135e-5
0.760, 5.133e-5
0.761, 5.128e-5
0.762, 5.127e-5
0.763, 5.122e-5
0.764, 5.119e-5
0.765, 5.117e-5
0.766, 5.112e-5
0.767, 5.110e-5
0.768, 5.105e-5
0.769, 5.102e-5
0.770, 5.100e-5
0.771, 5.096e-5
0.772, 5.095e-5
0.773, 5.091e-5
0.774, 5.088e-5
0.775, 5.086e-5
0.776, 5.082e-5
0.777, 5.081e-5
0.778, 5.077e-5
0.779, 5.074e-5
0.780, 5.071e-5
0.781, 5.066e-5
0.782, 5.063e-5
0.783, 5.059e-5
0.784, 5.056e-5
0.785, 5.054e-5
0.786, 5.050e-5
0.787, 5.047e-5
0.788, 5.045e-5
0.789, 5.042e-5
0.790, 5.039e-5
0.791, 5.035e-5
0.792, 5.033e-5
0.793, 5.032e-5
0.794, 5.029e-5
0.795, 5.026e-5
0.796, 5.023e-5
0.797, 5.021e-5
0.798, 5.018e-5
0.799, 5.016e-5
0.800, 5.013e-5
0.801, 5.010e-5
0.802, 5.008e-5
0.803, 5.005e-5
0.804, 5.003e-5
0.805, 5.000e-5
0.806, 4.996e-5
0.807, 4.994e-5
0.808, 4.991e-5
0.809, 4.989e-5
0.810, 4.986e-5
0.811, 4.983e-5
0.812, 4.982e-5
0.813, 4.979e-5
0.814, 4.977e-5
0.815, 4.976e-5
0.816, 4.973e-5
0.817, 4.972e-5
0.818, 4.970e-5
0.819, 4.964e-5
0.820, 4.965e-5
0.821, 4.962e-5
0.822, 4.960e-5
0.823, 4.958e-5
0.824, 4.956e-5
0.825, 4.955e-5
0.826, 4.952e-5
0.827, 4.951e-5
0.828, 4.949e-5
0.829, 4.948e-5
0.830, 4.947e-5
0.831, 4.944e-5
0.832, 4.942e-5
0.833, 4.941e-5
0.834, 4.939e-5
0.835, 4.938e-5
0.836, 4.935e-5
0.837, 4.935e-5
0.838, 4.932e-5
0.839, 4.931e-5
0.840, 4.930e-5
0.841, 4.928e-5
0.842, 4.928e-5
0.843, 4.926e-5
0.844, 4.925e-5
0.845, 4.926e-5
0.846, 4.922e-5
0.847, 4.921e-5
0.848, 4.919e-5
0.849, 4.917e-5
0.850, 4.915e-5
0.851, 4.912e-5
0.852, 4.912e-5
0.853, 4.909e-5
0.854, 4.908e-5
0.855, 4.908e-5
0.856, 4.905e-5
0.857, 4.905e-5
0.858, 4.903e-5
0.859, 4.902e-5
0.860, 4.902e-5
0.861, 4.901e-5
0.862, 4.900e-5
0.863, 4.898e-5
0.864, 4.896e-5
0.865, 4.896e-5
0.866, 4.893e-5
0.867, 4.893e-5
0.868, 4.891e-5
0.869, 4.890e-5
0.870, 4.888e-5
0.871, 4.887e-5
0.872, 4.887e-5
0.873, 4.886e-5
0.874, 4.885e-5
0.875, 4.884e-5
0.876, 4.882e-5
0.877, 4.882e-5
0.878, 4.880e-5
0.879, 4.879e-5
0.880, 4.879e-5
0.881, 4.876e-5
0.882, 4.876e-5
0.883, 4.872e-5
0.884, 4.872e-5
0.885, 4.872e-5
0.886, 4.869e-5
0.887, 4.869e-5
0.888, 4.867e-5
0.889, 4.866e-5
0.890, 4.865e-5
0.891, 4.863e-5
0.892, 4.864e-5
0.893, 4.862e-5
0.894, 4.861e-5
0.895, 4.861e-5
0.896, 4.860e-5
0.897, 4.861e-5
0.898, 4.859e-5
0.899, 4.858e-5
0.900, 4.800e-5
0.899, 4.750e-5
0.898, 4.724e-5
0.897, 4.699e-5
0.896, 4.676e-5
0.895, 4.659e-5
0.894, 4.640e-5
0.893, 4.624e-5
0.892, 4.607e-5
0.891, 4.592e-5
0.890, 4.579e-5
0.889, 4.564e-5
0.888, 4.552e-5
0.887, 4.539e-5
0.886, 4.527e-5
0.885, 4.516e-5
0.884, 4.504e-5
0.883, 4.495e-5
0.882, 4.483e-5
0.881, 4.474e-5
0.880, 4.464e-5
0.879, 4.453e-5
0.878, 4.446e-5
0.877, 4.436e-5
0.876, 4.426e-5
0.875, 4.418e-5
0.874, 4.408e-5
0.873, 4.401e-5
0.872, 4.391e-5
0.871, 4.384e-5
0.870, 4.376e-5
0.869, 4.368e-5
0.868, 4.362e-5
0.867, 4.353e-5
0.866, 4.347e-5
0.865, 4.340e-5
0.864, 4.333e-5
0.863, 4.327e-5
0.862, 4.321e-5
0.861, 4.315e-5
0.860, 4.309e-5
0.859, 4.301e-5
0.858, 4.298e-5
0.857, 4.290e-5
0.856, 4.284e-5
0.855, 4.277e-5
0.854, 4.271e-5
0.853, 4.267e-5
0.852, 4.260e-5
0.851, 4.254e-5
0.850, 4.250e-5
0.849, 4.244e-5
0.848, 4.240e-5
0.847, 4.234e-5
0.846, 4.229e-5
0.845, 4.224e-5
0.844, 4.218e-5
0.843, 4.215e-5
0.842, 4.209e-5
0.841, 4.204e-5
0.840, 4.201e-5
0.839, 4.195e-5
0.838, 4.192e-5
0.837, 4.187e-5
0.836, 4.182e-5
0.835, 4.178e-5
0.834, 4.173e-5
0.833, 4.169e-5
0.832, 4.165e-5
0.831, 4.159e-5
0.830, 4.155e-5
0.829, 4.150e-5
0.828, 4.147e-5
0.827, 4.142e-5
0.826, 4.139e-5
0.825, 4.135e-5
0.824, 4.130e-5
0.823, 4.128e-5
0.822, 4.125e-5
0.821, 4.120e-5
0.820, 4.119e-5
0.819, 4.115e-5
0.818, 4.111e-5
0.817, 4.106e-5
0.816, 4.102e-5
0.815, 4.099e-5
0.814, 4.094e-5
0.813, 4.092e-5
0.812, 4.087e-5
0.811, 4.083e-5
0.810, 4.081e-5
0.809, 4.077e-5
0.808, 4.075e-5
0.807, 4.072e-5
0.806, 4.069e-5
0.805, 4.067e-5
0.804, 4.062e-5
0.803, 4.060e-5
0.802, 4.058e-5
0.801, 4.055e-5
0.800, 4.053e-5
0.799, 4.049e-5
0.798, 4.047e-5
0.797, 4.044e-5
0.796, 4.040e-5
0.795, 4.037e-5
0.794, 4.033e-5
0.793, 4.032e-5
0.792, 4.028e-5
0.791, 4.026e-5
0.790, 4.024e-5
0.789, 4.021e-5
0.788, 4.020e-5
0.787, 4.016e-5
0.786, 4.015e-5
0.785, 4.013e-5
0.784, 4.009e-5
0.783, 4.008e-5
0.782, 4.006e-5
0.781, 4.005e-5
0.780, 4.002e-5
0.779, 3.999e-5
0.778, 3.998e-5
0.777, 3.995e-5
0.776, 3.992e-5
0.775, 3.991e-5
0.774, 3.987e-5
0.773, 3.986e-5
0.772, 3.983e-5
0.771, 3.981e-5
0.770, 3.980e-5
0.769, 3.977e-5
0.768, 3.976e-5
0.767, 3.974e-5
0.766, 3.972e-5
0.765, 3.971e-5
0.764, 3.968e-5
0.763, 3.967e-5
0.762, 3.965e-5
0.761, 3.963e-5
0.760, 3.961e-5
0.759, 3.959e-5
0.758, 3.958e-5
0.757, 3.956e-5
0.756, 3.954e-5
0.755, 3.953e-5
0.754, 3.950e-5
0.753, 3.949e-5
0.752, 3.947e-5
0.751, 3.945e-5
0.750, 3.944e-5
0.749, 3.942e-5
0.748, 3.940e-5
0.747, 3.938e-5
0.746, 3.937e-5
0.745, 3.936e-5
0.744, 3.933e-5
0.743, 3.932e-5
0.742, 3.930e-5
0.741, 3.929e-5
0.740, 3.927e-5
0.739, 3.925e-5
0.738, 3.924e-5
0.737, 3.921e-5
0.736, 3.920e-5
0.735, 3.919e-5
0.734, 3.917e-5
0.733, 3.916e-5
0.732, 3.913e-5
0.731, 3.913e-5
0.730, 3.912e-5
0.729, 3.910e-5
0.728, 3.908e-5
0.727, 3.906e-5
0.726, 3.904e-5
0.725, 3.903e-5
0.724, 3.900e-5
0.723, 3.899e-5
0.722, 3.898e-5
0.721, 3.895e-5
0.720, 3.894e-5
0.719, 3.891e-5
0.718, 3.891e-5
0.717, 3.888e-5
0.716, 3.886e-5
0.715, 3.885e-5
0.714, 3.883e-5
0.713, 3.882e-5
0.712, 3.879e-5
0.711, 3.878e-5
0.710, 3.877e-5
0.709, 3.874e-5
0.708, 3.872e-5
0.707, 3.870e-5
0.706, 3.869e-5
0.705, 3.867e-5
0.704, 3.865e-5
0.703, 3.863e-5
0.702, 3.861e-5
0.701, 3.860e-5
0.700, 3.858e-5
0.699, 3.856e-5
0.698, 3.856e-5
0.697, 3.853e-5
0.696, 3.852e-5
0.695, 3.851e-5
0.694, 3.848e-5
0.693, 3.847e-5
0.692, 3.844e-5
0.691, 3.842e-5
0.690, 3.841e-5
0.689, 3.838e-5
0.688, 3.838e-5
0.687, 3.836e-5
0.686, 3.834e-5
0.685, 3.833e-5
0.684, 3.830e-5
0.683, 3.830e-5
0.682, 3.828e-5
0.681, 3.826e-5
0.680, 3.825e-5
0.679, 3.824e-5
0.678, 3.823e-5
0.677, 3.820e-5
0.676, 3.818e-5
0.675, 3.817e-5
0.674, 3.815e-5
0.673, 3.814e-5
0.672, 3.813e-5
0.671, 3.812e-5
0.670, 3.810e-5
0.669, 3.808e-5
0.668, 3.807e-5
0.667, 3.805e-5
0.666, 3.805e-5
0.665, 3.803e-5
0.664, 3.801e-5
0.663, 3.800e-5
0.662, 3.799e-5
0.661, 3.798e-5
0.660, 3.796e-5
0.659, 3.794e-5
0.658, 3.794e-5
0.657, 3.791e-5
0.656, 3.790e-5
0.655, 3.789e-5
0.654, 3.788e-5
0.653, 3.788e-5
0.652, 3.785e-5
0.651, 3.784e-5
0.650, 3.783e-5
0.649, 3.780e-5
0.648, 3.780e-5
0.647, 3.778e-5
0.646, 3.777e-5
0.645, 3.776e-5
0.644, 3.773e-5
0.643, 3.773e-5
0.642, 3.771e-5
0.641, 3.769e-5
0.640, 3.768e-5
0.639, 3.766e-5
0.638, 3.766e-5
0.637, 3.764e-5
0.636, 3.763e-5
0.635, 3.762e-5
0.634, 3.761e-5
0.633, 3.759e-5
0.632, 3.757e-5
0.631, 3.756e-5
0.630, 3.755e-5
0.629, 3.753e-5
0.628, 3.753e-5
0.627, 3.751e-5
0.626, 3.750e-5
0.625, 3.749e-5
0.624, 3.747e-5
0.623, 3.746e-5
0.622, 3.744e-5
0.621, 3.743e-5
0.620, 3.741e-5
0.619, 3.739e-5
0.618, 3.739e-5
0.617, 3.737e-5
0.616, 3.735e-5
0.615, 3.736e-5
0.614, 3.732e-5
0.613, 3.732e-5
0.612, 3.729e-5
0.611, 3.728e-5
0.610, 3.727e-5
0.609, 3.724e-5
0.608, 3.723e-5
0.607, 3.721e-5
0.606, 3.719e-5
0.605, 3.718e-5
0.604, 3.716e-5
0.603, 3.715e-5
0.602, 3.714e-5
0.601, 3.712e-5
0.600, 3.710e-5
0.599, 3.707e-5
0.598, 3.706e-5
0.597, 3.704e-5
0.596, 3.701e-5
0.595, 3.700e-5
0.594, 3.697e-5
0.593, 3.695e-5
0.592, 3.692e-5
0.591, 3.691e-5
0.590, 3.689e-5
0.589, 3.685e-5
0.588, 3.684e-5
0.587, 3.681e-5
0.586, 3.680e-5
0.585, 3.677e-5
0.584, 3.674e-5
0.583, 3.672e-5
0.582, 3.669e-5
0.581, 3.667e-5
0.580, 3.664e-5
0.579, 3.660e-5
0.578, 3.658e-5
0.577, 3.654e-5
0.576, 3.652e-5
0.575, 3.648e-5
0.574, 3.644e-5
0.573, 3.642e-5
0.572, 3.637e-5
0.571, 3.634e-5
0.570, 3.630e-5
0.569, 3.626e-5
0.568, 3.624e-5
0.567, 3.619e-5
0.566, 3.616e-5
0.565, 3.612e-5
0.564, 3.607e-5
0.563, 3.604e-5
0.562, 3.598e-5
0.561, 3.594e-5
0.560, 3.590e-5
0.559, 3.584e-5
0.558, 3.579e-5
0.557, 3.573e-5
0.556, 3.568e-5
0.555, 3.563e-5
0.554, 3.557e-5
0.553, 3.552e-5
0.552, 3.544e-5
0.551, 3.540e-5
0.550, 3.533e-5
0.549, 3.526e-5
0.548, 3.520e-5
0.547, 3.513e-5
0.546, 3.506e-5
0.545, 3.497e-5
0.544, 3.489e-5
0.543, 3.482e-5
0.542, 3.473e-5
0.541, 3.466e-5
0.540, 3.455e-5
0.539, 3.445e-5
0.538, 3.436e-5
0.537, 3.426e-5
0.536, 3.418e-5
0.535, 3.406e-5
0.534, 3.395e-5
0.533, 3.385e-5
0.532, 3.372e-5
0.531, 3.362e-5
0.530, 3.350e-5
0.529, 3.336e-5
0.528, 3.325e-5
0.527, 3.309e-5
0.526, 3.297e-5
0.525, 3.283e-5
0.524, 3.267e-5
0.523, 3.251e-5
0.522, 3.234e-5
0.521, 3.219e-5
0.520, 3.200e-5
0.519, 3.181e-5
0.518, 3.164e-5
0.517, 3.143e-5
0.516, 3.124e-5
0.515, 3.102e-5
0.514, 3.081e-5
0.513, 3.060e-5
0.512, 3.029e-5
0.511, 3.010e-5
0.510, 2.983e-5
0.509, 2.959e-5
0.508, 2.933e-5
0.507, 2.903e-5
0.506, 2.880e-5
0.505, 2.846e-5
0.504, 2.816e-5
0.503, 2.785e-5
0.502, 2.750e-5
0.501, 2.721e-5
0.500, 2.683e-5
0.499, 2.653e-5
0.498, 2.615e-5
0.497, 2.571e-5
0.496, 2.535e-5
0.495, 2.490e-5
0.494, 2.447e-5
0.493, 2.406e-5
0.492, 2.354e-5
0.491, 2.312e-5
0.490, 2.258e-5
0.489, 2.209e-5
0.488, 2.157e-5
0.487, 2.090e-5
0.486, 2.039e-5
0.485, 1.982e-5
0.484, 1.922e-5
0.483, 1.859e-5
0.482, 1.793e-5
0.481, 1.735e-5
0.480, 1.661e-5
0.479, 1.591e-5
0.478, 1.524e-5
0.477, 1.442e-5
0.476, 1.376e-5
0.475, 1.290e-5
0.474, 1.225e-5
0.473, 1.140e-5
0.472, 1.044e-5
0.471, 9.661e-6
0.470, 8.655e-6
0.469, 7.820e-6
0.468, 6.780e-6
0.467, 5.733e-6
0.466, 4.915e-6
0.465, 3.825e-6
0.464, 2.846e-6
0.463, 1.760e-6
0.462, 5.339e-7
0.461, -3.531e-7
0.460, -1.636e-6
0.459, -2.709e-6
0.458, -3.923e-6
0.457, -5.327e-6
0.456, -6.288e-6
0.455, -7.763e-6
0.454, -8.908e-6
0.453, -1.016e-5
0.452, -1.167e-5
0.451, -1.277e-5
0.450, -1.440e-5
0.449, -1.560e-5
0.448, -1.662e-5
0.447, -1.839e-5
0.446, -1.959e-5
0.445, -2.126e-5
0.444, -2.258e-5
0.443, -2.406e-5
0.442, -2.566e-5
0.441, -2.696e-5
0.440, -2.871e-5
0.439, -3.003e-5
0.438, -3.156e-5
0.437, -3.294e-5
0.436, -3.440e-5
0.435, -3.633e-5
0.434, -3.748e-5
0.433, -3.901e-5
0.432, -4.043e-5
0.431, -4.161e-5
0.430, -4.343e-5
0.429, -4.451e-5
0.428, -4.601e-5
0.427, -4.750e-5
0.426, -4.868e-5
0.425, -5.033e-5
0.424, -5.130e-5
0.423, -5.254e-5
0.422, -5.390e-5
0.421, -5.475e-5
0.420, -5.659e-5
0.419, -5.729e-5
0.418, -5.868e-5
0.417, -5.993e-5
0.416, -6.053e-5
0.415, -6.207e-5
0.414, -6.277e-5
0.413, -6.375e-5
0.412, -6.486e-5
0.411, -6.533e-5
0.410, -6.547e-5
0.409, -6.613e-5
0.408, -6.728e-5
0.407, -6.820e-5
0.406, -6.874e-5
0.405, -6.968e-5
0.404, -7.008e-5
0.403, -7.072e-5
0.402, -7.140e-5
0.401, -7.160e-5
0.400, -7.228e-5
0.399, -7.250e-5
0.398, -7.273e-5
0.397, -7.291e-5
0.396, -7.299e-5
0.395, -7.364e-5
0.394, -7.356e-5
0.393, -7.375e-5
0.392, -7.389e-5
0.391, -7.385e-5
0.390, -7.400e-5
0.389, -7.382e-5
0.388, -7.386e-5
0.387, -7.391e-5
0.386, -7.360e-5
0.385, -7.368e-5
0.384, -7.360e-5
0.383, -7.337e-5
0.382, -7.318e-5
0.381, -7.274e-5
0.380, -7.268e-5
0.379, -7.223e-5
0.378, -7.189e-5
0.377, -7.166e-5
0.376, -7.110e-5
0.375, -7.093e-5
0.374, -7.041e-5
0.373, -6.997e-5
0.372, -6.962e-5
0.371, -6.890e-5
0.370, -6.871e-5
0.369, -6.812e-5
0.368, -6.770e-5
0.367, -6.736e-5
0.366, -6.666e-5
0.365, -6.628e-5
0.364, -6.577e-5
0.363, -6.524e-5
0.362, -6.478e-5
0.361, -6.414e-5
0.360, -6.372e-5
0.359, -6.312e-5
0.358, -6.257e-5
0.357, -6.210e-5
0.356, -6.147e-5
0.355, -6.101e-5
0.354, -6.042e-5
0.353, -5.988e-5
0.352, -5.934e-5
0.351, -5.878e-5
0.350, -5.827e-5
0.349, -5.769e-5
0.348, -5.714e-5
0.347, -5.664e-5
0.346, -5.599e-5
0.345, -5.555e-5
0.344, -5.501e-5
0.343, -5.449e-5
0.342, -5.399e-5
0.341, -5.340e-5
0.340, -5.293e-5
0.339, -5.239e-5
0.338, -5.187e-5
0.337, -5.140e-5
0.336, -5.087e-5
0.335, -5.038e-5
0.334, -4.986e-5
0.333, -4.942e-5
0.332, -4.894e-5
0.331, -4.842e-5
0.330, -4.796e-5
0.329, -4.750e-5
0.328, -4.703e-5
0.327, -4.660e-5
0.326, -4.613e-5
0.325, -4.569e-5
0.324, -4.526e-5
0.323, -4.482e-5
0.322, -4.441e-5
0.321, -4.397e-5
0.320, -4.351e-5
0.319, -4.312e-5
0.318, -4.269e-5
0.317, -4.229e-5
0.316, -4.188e-5
0.315, -4.149e-5
0.314, -4.107e-5
0.313, -4.069e-5
0.312, -4.032e-5
0.311, -3.993e-5
0.310, -3.957e-5
0.309, -3.919e-5
0.308, -3.883e-5
0.307, -3.851e-5
0.306, -3.813e-5
0.305, -3.779e-5
0.304, -3.744e-5
0.303, -3.709e-5
0.302, -3.676e-5
0.301, -3.641e-5
0.300, -3.609e-5
0.299, -3.577e-5
0.298, -3.544e-5
0.297, -3.514e-5
0.296, -3.482e-5
0.295, -3.451e-5
0.294, -3.421e-5
0.293, -3.391e-5
0.292, -3.362e-5
0.291, -3.333e-5
0.290, -3.306e-5
0.289, -3.278e-5
0.288, -3.250e-5
0.287, -3.223e-5
0.286, -3.195e-5
0.285, -3.168e-5
0.284, -3.142e-5
0.283, -3.114e-5
0.282, -3.089e-5
0.281, -3.063e-5
0.280, -3.037e-5
0.279, -3.013e-5
0.278, -2.987e-5
0.277, -2.964e-5
0.276, -2.939e-5
0.275, -2.917e-5
0.274, -2.894e-5
0.273, -2.871e-5
0.272, -2.849e-5
0.271, -2.826e-5
0.270, -2.804e-5
0.269, -2.782e-5
0.268, -2.762e-5
0.267, -2.741e-5
0.266, -2.720e-5
0.265, -2.700e-5
0.264, -2.681e-5
0.263, -2.660e-5
0.262, -2.640e-5
0.261, -2.621e-5
0.260, -2.602e-5
0.259, -2.583e-5
0.258, -2.563e-5
0.257, -2.545e-5
0.256, -2.526e-5
0.255, -2.507e-5
0.254, -2.490e-5
0.253, -2.471e-5
0.252, -2.453e-5
0.251, -2.435e-5
0.250, -2.417e-5
0.249, -2.401e-5
0.248, -2.383e-5
0.247, -2.367e-5
0.246, -2.350e-5
0.245, -2.334e-5
0.244, -2.319e-5
0.243, -2.303e-5
0.242, -2.287e-5
0.241, -2.272e-5
0.240, -2.257e-5
0.239, -2.242e-5
0.238, -2.226e-5
0.237, -2.211e-5
0.236, -2.195e-5
0.235, -2.180e-5
0.234, -2.165e-5
0.233, -2.150e-5
0.232, -2.136e-5
0.231, -2.122e-5
0.230, -2.107e-5
0.229, -2.093e-5
0.228, -2.079e-5
0.227, -2.067e-5
0.226, -2.053e-5
0.225, -2.040e-5
0.224, -2.028e-5
0.223, -2.015e-5
0.222, -2.003e-5
0.221, -1.990e-5
0.220, -1.979e-5
0.219, -1.967e-5
0.218, -1.955e-5
0.217, -1.944e-5
0.216, -1.932e-5
0.215, -1.920e-5
0.214, -1.910e-5
0.213, -1.898e-5
0.212, -1.888e-5
0.211, -1.876e-5
0.210, -1.865e-5
0.209, -1.854e-5
0.208, -1.843e-5
0.207, -1.833e-5
0.206, -1.822e-5
0.205, -1.810e-5
0.204, -1.801e-5
0.203, -1.790e-5
0.202, -1.780e-5
0.201, -1.770e-5
0.200, -1.761e-5
0.199, -1.752e-5
0.198, -1.743e-5
0.197, -1.734e-5
0.196, -1.725e-5
0.195, -1.716e-5
0.194, -1.708e-5
0.193, -1.699e-5
0.192, -1.690e-5
0.191, -1.681e-5
0.190, -1.671e-5
0.189, -1.663e-5
0.188, -1.654e-5
0.187, -1.646e-5
0.186, -1.637e-5
0.185, -1.628e-5
0.184, -1.620e-5
0.183, -1.612e-5
0.182, -1.605e-5
0.181, -1.597e-5
0.180, -1.591e-5
0.179, -1.583e-5
0.178, -1.575e-5
0.177, -1.569e-5
0.176, -1.561e-5
0.175, -1.553e-5
0.174, -1.546e-5
0.173, -1.537e-5
0.172, -1.531e-5
0.171, -1.522e-5
0.170, -1.514e-5
0.169, -1.508e-5
0.168, -1.500e-5
0.167, -1.493e-5
0.166, -1.486e-5
0.165, -1.479e-5
0.164, -1.473e-5
0.163, -1.465e-5
0.162, -1.459e-5
0.161, -1.453e-5
0.160, -1.447e-5
0.159, -1.441e-5
0.158, -1.434e-5
0.157, -1.428e-5
0.156, -1.422e-5
0.155, -1.415e-5
0.154, -1.409e-5
0.153, -1.402e-5
0.152, -1.396e-5
0.151, -1.388e-5
0.150, -1.381e-5
0.149, -1.375e-5
0.148, -1.368e-5
0.147, -1.362e-5
0.146, -1.355e-5
0.145, -1.348e-5
0.144, -1.343e-5
0.143, -1.337e-5
0.142, -1.332e-5
0.141, -1.326e-5
0.140, -1.321e-5
0.139, -1.316e-5
0.138, -1.310e-5
0.137, -1.306e-5
0.136, -1.300e-5
0.135, -1.294e-5
0.134, -1.288e-5
0.133, -1.282e-5
0.132, -1.277e-5
0.131, -1.270e-5
0.130, -1.264e-5
0.129, -1.259e-5
0.128, -1.254e-5
0.127, -1.249e-5
0.126, -1.243e-5
0.125, -1.239e-5
0.124, -1.234e-5
0.123, -1.229e-5
0.122, -1.224e-5
0.121, -1.219e-5
0.120, -1.214e-5
0.119, -1.210e-5
0.118, -1.204e-5
0.117, -1.200e-5
0.116, -1.195e-5
0.115, -1.191e-5
0.114, -1.186e-5
0.113, -1.181e-5
0.112, -1.177e-5
0.111, -1.172e-5
0.110, -1.168e-5
0.109, -1.163e-5
0.108, -1.158e-5
0.107, -1.154e-5
0.106, -1.149e-5
0.105, -1.144e-5
0.104, -1.140e-5
0.103, -1.135e-5
0.102, -1.131e-5
0.101, -1.127e-5
0.100, -1.123e-5
0.099, -1.119e-5
0.098, -1.114e-5
0.097, -1.110e-5
0.096, -1.106e-5
0.095, -1.102e-5
0.094, -1.098e-5
0.093, -1.093e-5
0.092, -1.090e-5
0.091, -1.086e-5
0.090, -1.081e-5
0.089, -1.078e-5
0.088, -1.074e-5
0.087, -1.072e-5
0.086, -1.068e-5
0.085, -1.065e-5
0.084, -1.062e-5
0.083, -1.058e-5
0.082, -1.055e-5
0.081, -1.051e-5
0.080, -1.048e-5
0.079, -1.044e-5
0.078, -1.041e-5
0.077, -1.039e-5
0.076, -1.035e-5
0.075, -1.032e-5
0.074, -1.030e-5
0.073, -1.026e-5
0.072, -1.024e-5
0.071, -1.021e-5
0.070, -1.018e-5
0.069, -1.016e-5
0.068, -1.013e-5
0.067, -1.011e-5
0.066, -1.008e-5
0.065, -1.005e-5
0.064, -1.002e-5
0.063, -9.991e-6
0.062, -9.977e-6
0.061, -9.952e-6
0.060, -9.938e-6
0.059, -9.921e-6
0.058, -9.897e-6
0.057, -9.880e-6
0.056, -9.857e-6
0.055, -9.834e-6
0.054, -9.815e-6
0.053, -9.788e-6
0.052, -9.777e-6
0.051, -9.748e-6
0.050, -9.728e-6
0.049, -9.707e-6
0.048, -9.683e-6
0.047, -9.667e-6
0.046, -9.645e-6
0.045, -9.629e-6
0.044, -9.617e-6
0.043, -9.595e-6
0.042, -9.583e-6
0.041, -9.562e-6
0.040, -9.547e-6
0.039, -9.531e-6
0.038, -9.514e-6
0.037, -9.507e-6
0.036, -9.486e-6
0.035, -9.471e-6
0.034, -9.458e-6
0.033, -9.439e-6
0.032, -9.432e-6
0.031, -9.412e-6
0.030, -9.397e-6
0.029, -9.382e-6
0.028, -9.366e-6
0.027, -9.360e-6
0.026, -9.351e-6
0.025, -9.340e-6
0.024, -9.333e-6
0.023, -9.316e-6
0.022, -9.312e-6
0.021, -9.298e-6
0.020, -9.297e-6
0.019, -9.287e-6
0.018, -9.271e-6
0.017, -9.271e-6
0.016, -9.256e-6
0.015, -9.247e-6
0.014, -9.241e-6
0.013, -9.224e-6
0.012, -9.229e-6
0.011, -9.217e-6
0.010, -9.210e-6
0.009, -9.209e-6
0.008, -9.207e-6
0.007, -9.211e-6
0.006, -9.203e-6
0.005, -9.204e-6
0.004, -9.205e-6
0.003, -9.200e-6
0.002, -9.206e-6
0.001, -9.209e-6
