June 30, 2026   19:33:52
Cyclic Voltammetry
File: mecn_ar_0.1mtbapf6_3mm_1mmco(dmgh)2(py)cl_1mmzn(cyclen)(otf)2_2
Data Source:  Experiment
Instrument Model:  CHI660D
Header: 
Note: 

Init E (V) = 0
High E (V) = 0.9
Low E (V) = -1.3
Final E (V) = 0
Init P/N = N
Scan Rate (V/s) = 0.1
Segment = 3
Sample Interval (V) = 0.001
Quiet Time (sec) = 2
Sensitivity (A/V) = 1e-4
Comp R (ohm) = 142.4

Results:

Channel 1:
Segment 1:
Ep = -0.370V
ip = -7.239e-6A
Ah = -6.381e-6C

Segment 2:
Ep = 0.447V
ip = 1.174e-4A
Ah = 7.030e-5C

Segment 3:
Ep = 0.387V
ip = -1.182e-4A
Ah = -7.615e-5C

Potential/V, Current/A

0.000, -2.717e-6
-0.001, -2.800e-6
-0.002, -2.858e-6
-0.003, -2.908e-6
-0.004, -2.957e-6
-0.005, -3.010e-6
-0.006, -3.047e-6
-0.007, -3.097e-6
-0.008, -3.141e-6
-0.009, -3.183e-6
-0.010, -3.236e-6
-0.011, -3.273e-6
-0.012, -3.322e-6
-0.013, -3.364e-6
-0.014, -3.405e-6
-0.015, -3.458e-6
-0.016, -3.499e-6
-0.017, -3.548e-6
-0.018, -3.590e-6
-0.019, -3.633e-6
-0.020, -3.684e-6
-0.021, -3.730e-6
-0.022, -3.773e-6
-0.023, -3.818e-6
-0.024, -3.864e-6
-0.025, -3.915e-6
-0.026, -3.956e-6
-0.027, -4.003e-6
-0.028, -4.048e-6
-0.029, -4.086e-6
-0.030, -4.132e-6
-0.031, -4.179e-6
-0.032, -4.232e-6
-0.033, -4.277e-6
-0.034, -4.327e-6
-0.035, -4.379e-6
-0.036, -4.424e-6
-0.037, -4.476e-6
-0.038, -4.517e-6
-0.039, -4.566e-6
-0.040, -4.622e-6
-0.041, -4.667e-6
-0.042, -4.724e-6
-0.043, -4.765e-6
-0.044, -4.815e-6
-0.045, -4.868e-6
-0.046, -4.915e-6
-0.047, -4.972e-6
-0.048, -5.021e-6
-0.049, -5.071e-6
-0.050, -5.128e-6
-0.051, -5.176e-6
-0.052, -5.233e-6
-0.053, -5.281e-6
-0.054, -5.333e-6
-0.055, -5.392e-6
-0.056, -5.445e-6
-0.057, -5.497e-6
-0.058, -5.549e-6
-0.059, -5.600e-6
-0.060, -5.662e-6
-0.061, -5.707e-6
-0.062, -5.762e-6
-0.063, -5.814e-6
-0.064, -5.859e-6
-0.065, -5.919e-6
-0.066, -5.963e-6
-0.067, -6.021e-6
-0.068, -6.075e-6
-0.069, -6.130e-6
-0.070, -6.185e-6
-0.071, -6.237e-6
-0.072, -6.296e-6
-0.073, -6.349e-6
-0.074, -6.402e-6
-0.075, -6.456e-6
-0.076, -6.511e-6
-0.077, -6.574e-6
-0.078, -6.620e-6
-0.079, -6.675e-6
-0.080, -6.729e-6
-0.081, -6.779e-6
-0.082, -6.835e-6
-0.083, -6.885e-6
-0.084, -6.941e-6
-0.085, -6.997e-6
-0.086, -7.046e-6
-0.087, -7.103e-6
-0.088, -7.156e-6
-0.089, -7.199e-6
-0.090, -7.257e-6
-0.091, -7.303e-6
-0.092, -7.364e-6
-0.093, -7.412e-6
-0.094, -7.463e-6
-0.095, -7.518e-6
-0.096, -7.564e-6
-0.097, -7.620e-6
-0.098, -7.668e-6
-0.099, -7.716e-6
-0.100, -7.771e-6
-0.101, -7.815e-6
-0.102, -7.873e-6
-0.103, -7.918e-6
-0.104, -7.963e-6
-0.105, -8.016e-6
-0.106, -8.057e-6
-0.107, -8.110e-6
-0.108, -8.155e-6
-0.109, -8.195e-6
-0.110, -8.246e-6
-0.111, -8.287e-6
-0.112, -8.338e-6
-0.113, -8.378e-6
-0.114, -8.423e-6
-0.115, -8.464e-6
-0.116, -8.506e-6
-0.117, -8.554e-6
-0.118, -8.595e-6
-0.119, -8.634e-6
-0.120, -8.678e-6
-0.121, -8.715e-6
-0.122, -8.757e-6
-0.123, -8.795e-6
-0.124, -8.838e-6
-0.125, -8.879e-6
-0.126, -8.913e-6
-0.127, -8.954e-6
-0.128, -8.999e-6
-0.129, -9.031e-6
-0.130, -9.074e-6
-0.131, -9.103e-6
-0.132, -9.145e-6
-0.133, -9.177e-6
-0.134, -9.209e-6
-0.135, -9.249e-6
-0.136, -9.275e-6
-0.137, -9.314e-6
-0.138, -9.341e-6
-0.139, -9.373e-6
-0.140, -9.410e-6
-0.141, -9.432e-6
-0.142, -9.468e-6
-0.143, -9.497e-6
-0.144, -9.525e-6
-0.145, -9.563e-6
-0.146, -9.589e-6
-0.147, -9.620e-6
-0.148, -9.650e-6
-0.149, -9.678e-6
-0.150, -9.708e-6
-0.151, -9.730e-6
-0.152, -9.760e-6
-0.153, -9.781e-6
-0.154, -9.806e-6
-0.155, -9.831e-6
-0.156, -9.853e-6
-0.157, -9.881e-6
-0.158, -9.898e-6
-0.159, -9.922e-6
-0.160, -9.949e-6
-0.161, -9.971e-6
-0.162, -9.998e-6
-0.163, -1.002e-5
-0.164, -1.005e-5
-0.165, -1.007e-5
-0.166, -1.008e-5
-0.167, -1.011e-5
-0.168, -1.013e-5
-0.169, -1.015e-5
-0.170, -1.017e-5
-0.171, -1.019e-5
-0.172, -1.021e-5
-0.173, -1.023e-5
-0.174, -1.025e-5
-0.175, -1.027e-5
-0.176, -1.029e-5
-0.177, -1.032e-5
-0.178, -1.033e-5
-0.179, -1.035e-5
-0.180, -1.037e-5
-0.181, -1.039e-5
-0.182, -1.041e-5
-0.183, -1.043e-5
-0.184, -1.044e-5
-0.185, -1.046e-5
-0.186, -1.048e-5
-0.187, -1.050e-5
-0.188, -1.052e-5
-0.189, -1.054e-5
-0.190, -1.056e-5
-0.191, -1.058e-5
-0.192, -1.059e-5
-0.193, -1.061e-5
-0.194, -1.063e-5
-0.195, -1.066e-5
-0.196, -1.067e-5
-0.197, -1.070e-5
-0.198, -1.071e-5
-0.199, -1.074e-5
-0.200, -1.076e-5
-0.201, -1.078e-5
-0.202, -1.080e-5
-0.203, -1.082e-5
-0.204, -1.084e-5
-0.205, -1.086e-5
-0.206, -1.088e-5
-0.207, -1.092e-5
-0.208, -1.094e-5
-0.209, -1.096e-5
-0.210, -1.099e-5
-0.211, -1.102e-5
-0.212, -1.106e-5
-0.213, -1.108e-5
-0.214, -1.111e-5
-0.215, -1.115e-5
-0.216, -1.118e-5
-0.217, -1.121e-5
-0.218, -1.124e-5
-0.219, -1.127e-5
-0.220, -1.131e-5
-0.221, -1.134e-5
-0.222, -1.137e-5
-0.223, -1.141e-5
-0.224, -1.145e-5
-0.225, -1.150e-5
-0.226, -1.154e-5
-0.227, -1.158e-5
-0.228, -1.163e-5
-0.229, -1.167e-5
-0.230, -1.173e-5
-0.231, -1.178e-5
-0.232, -1.183e-5
-0.233, -1.188e-5
-0.234, -1.194e-5
-0.235, -1.199e-5
-0.236, -1.204e-5
-0.237, -1.210e-5
-0.238, -1.216e-5
-0.239, -1.222e-5
-0.240, -1.228e-5
-0.241, -1.233e-5
-0.242, -1.240e-5
-0.243, -1.245e-5
-0.244, -1.253e-5
-0.245, -1.260e-5
-0.246, -1.266e-5
-0.247, -1.274e-5
-0.248, -1.281e-5
-0.249, -1.288e-5
-0.250, -1.296e-5
-0.251, -1.303e-5
-0.252, -1.312e-5
-0.253, -1.319e-5
-0.254, -1.327e-5
-0.255, -1.335e-5
-0.256, -1.342e-5
-0.257, -1.351e-5
-0.258, -1.359e-5
-0.259, -1.368e-5
-0.260, -1.376e-5
-0.261, -1.384e-5
-0.262, -1.393e-5
-0.263, -1.402e-5
-0.264, -1.411e-5
-0.265, -1.420e-5
-0.266, -1.428e-5
-0.267, -1.438e-5
-0.268, -1.447e-5
-0.269, -1.455e-5
-0.270, -1.465e-5
-0.271, -1.475e-5
-0.272, -1.485e-5
-0.273, -1.495e-5
-0.274, -1.505e-5
-0.275, -1.515e-5
-0.276, -1.525e-5
-0.277, -1.535e-5
-0.278, -1.544e-5
-0.279, -1.554e-5
-0.280, -1.564e-5
-0.281, -1.574e-5
-0.282, -1.584e-5
-0.283, -1.594e-5
-0.284, -1.604e-5
-0.285, -1.614e-5
-0.286, -1.623e-5
-0.287, -1.635e-5
-0.288, -1.644e-5
-0.289, -1.654e-5
-0.290, -1.664e-5
-0.291, -1.674e-5
-0.292, -1.685e-5
-0.293, -1.695e-5
-0.294, -1.705e-5
-0.295, -1.715e-5
-0.296, -1.724e-5
-0.297, -1.735e-5
-0.298, -1.744e-5
-0.299, -1.754e-5
-0.300, -1.763e-5
-0.301, -1.772e-5
-0.302, -1.782e-5
-0.303, -1.790e-5
-0.304, -1.800e-5
-0.305, -1.810e-5
-0.306, -1.818e-5
-0.307, -1.829e-5
-0.308, -1.838e-5
-0.309, -1.847e-5
-0.310, -1.856e-5
-0.311, -1.865e-5
-0.312, -1.875e-5
-0.313, -1.883e-5
-0.314, -1.892e-5
-0.315, -1.900e-5
-0.316, -1.909e-5
-0.317, -1.917e-5
-0.318, -1.924e-5
-0.319, -1.933e-5
-0.320, -1.938e-5
-0.321, -1.946e-5
-0.322, -1.953e-5
-0.323, -1.960e-5
-0.324, -1.968e-5
-0.325, -1.974e-5
-0.326, -1.981e-5
-0.327, -1.989e-5
-0.328, -1.995e-5
-0.329, -2.003e-5
-0.330, -2.009e-5
-0.331, -2.015e-5
-0.332, -2.022e-5
-0.333, -2.028e-5
-0.334, -2.034e-5
-0.335, -2.040e-5
-0.336, -2.044e-5
-0.337, -2.050e-5
-0.338, -2.054e-5
-0.339, -2.059e-5
-0.340, -2.064e-5
-0.341, -2.067e-5
-0.342, -2.072e-5
-0.343, -2.076e-5
-0.344, -2.080e-5
-0.345, -2.084e-5
-0.346, -2.087e-5
-0.347, -2.091e-5
-0.348, -2.094e-5
-0.349, -2.098e-5
-0.350, -2.101e-5
-0.351, -2.105e-5
-0.352, -2.108e-5
-0.353, -2.110e-5
-0.354, -2.113e-5
-0.355, -2.115e-5
-0.356, -2.117e-5
-0.357, -2.120e-5
-0.358, -2.121e-5
-0.359, -2.123e-5
-0.360, -2.124e-5
-0.361, -2.125e-5
-0.362, -2.127e-5
-0.363, -2.128e-5
-0.364, -2.129e-5
-0.365, -2.129e-5
-0.366, -2.129e-5
-0.367, -2.131e-5
-0.368, -2.131e-5
-0.369, -2.132e-5
-0.370, -2.132e-5
-0.371, -2.131e-5
-0.372, -2.132e-5
-0.373, -2.132e-5
-0.374, -2.132e-5
-0.375, -2.131e-5
-0.376, -2.130e-5
-0.377, -2.130e-5
-0.378, -2.129e-5
-0.379, -2.129e-5
-0.380, -2.128e-5
-0.381, -2.127e-5
-0.382, -2.127e-5
-0.383, -2.126e-5
-0.384, -2.127e-5
-0.385, -2.126e-5
-0.386, -2.124e-5
-0.387, -2.123e-5
-0.388, -2.120e-5
-0.389, -2.119e-5
-0.390, -2.117e-5
-0.391, -2.115e-5
-0.392, -2.113e-5
-0.393, -2.111e-5
-0.394, -2.109e-5
-0.395, -2.107e-5
-0.396, -2.105e-5
-0.397, -2.104e-5
-0.398, -2.102e-5
-0.399, -2.101e-5
-0.400, -2.100e-5
-0.401, -2.097e-5
-0.402, -2.096e-5
-0.403, -2.093e-5
-0.404, -2.092e-5
-0.405, -2.090e-5
-0.406, -2.088e-5
-0.407, -2.086e-5
-0.408, -2.084e-5
-0.409, -2.079e-5
-0.410, -2.076e-5
-0.411, -2.074e-5
-0.412, -2.073e-5
-0.413, -2.070e-5
-0.414, -2.069e-5
-0.415, -2.067e-5
-0.416, -2.065e-5
-0.417, -2.063e-5
-0.418, -2.061e-5
-0.419, -2.060e-5
-0.420, -2.059e-5
-0.421, -2.057e-5
-0.422, -2.055e-5
-0.423, -2.052e-5
-0.424, -2.051e-5
-0.425, -2.049e-5
-0.426, -2.046e-5
-0.427, -2.045e-5
-0.428, -2.042e-5
-0.429, -2.040e-5
-0.430, -2.038e-5
-0.431, -2.035e-5
-0.432, -2.033e-5
-0.433, -2.031e-5
-0.434, -2.029e-5
-0.435, -2.028e-5
-0.436, -2.025e-5
-0.437, -2.024e-5
-0.438, -2.021e-5
-0.439, -2.021e-5
-0.440, -2.019e-5
-0.441, -2.017e-5
-0.442, -2.016e-5
-0.443, -2.014e-5
-0.444, -2.013e-5
-0.445, -2.011e-5
-0.446, -2.008e-5
-0.447, -2.007e-5
-0.448, -2.003e-5
-0.449, -2.002e-5
-0.450, -1.999e-5
-0.451, -1.996e-5
-0.452, -1.994e-5
-0.453, -1.991e-5
-0.454, -1.989e-5
-0.455, -1.988e-5
-0.456, -1.986e-5
-0.457, -1.985e-5
-0.458, -1.983e-5
-0.459, -1.982e-5
-0.460, -1.982e-5
-0.461, -1.980e-5
-0.462, -1.979e-5
-0.463, -1.977e-5
-0.464, -1.975e-5
-0.465, -1.973e-5
-0.466, -1.970e-5
-0.467, -1.969e-5
-0.468, -1.966e-5
-0.469, -1.964e-5
-0.470, -1.963e-5
-0.471, -1.961e-5
-0.472, -1.960e-5
-0.473, -1.957e-5
-0.474, -1.955e-5
-0.475, -1.953e-5
-0.476, -1.951e-5
-0.477, -1.950e-5
-0.478, -1.947e-5
-0.479, -1.947e-5
-0.480, -1.945e-5
-0.481, -1.944e-5
-0.482, -1.943e-5
-0.483, -1.942e-5
-0.484, -1.940e-5
-0.485, -1.938e-5
-0.486, -1.937e-5
-0.487, -1.937e-5
-0.488, -1.935e-5
-0.489, -1.933e-5
-0.490, -1.931e-5
-0.491, -1.928e-5
-0.492, -1.928e-5
-0.493, -1.925e-5
-0.494, -1.923e-5
-0.495, -1.922e-5
-0.496, -1.921e-5
-0.497, -1.920e-5
-0.498, -1.918e-5
-0.499, -1.917e-5
-0.500, -1.917e-5
-0.501, -1.916e-5
-0.502, -1.915e-5
-0.503, -1.914e-5
-0.504, -1.914e-5
-0.505, -1.913e-5
-0.506, -1.910e-5
-0.507, -1.909e-5
-0.508, -1.907e-5
-0.509, -1.906e-5
-0.510, -1.905e-5
-0.511, -1.904e-5
-0.512, -1.905e-5
-0.513, -1.904e-5
-0.514, -1.903e-5
-0.515, -1.903e-5
-0.516, -1.903e-5
-0.517, -1.904e-5
-0.518, -1.903e-5
-0.519, -1.904e-5
-0.520, -1.903e-5
-0.521, -1.901e-5
-0.522, -1.900e-5
-0.523, -1.898e-5
-0.524, -1.897e-5
-0.525, -1.895e-5
-0.526, -1.894e-5
-0.527, -1.894e-5
-0.528, -1.892e-5
-0.529, -1.892e-5
-0.530, -1.892e-5
-0.531, -1.893e-5
-0.532, -1.895e-5
-0.533, -1.895e-5
-0.534, -1.895e-5
-0.535, -1.896e-5
-0.536, -1.895e-5
-0.537, -1.898e-5
-0.538, -1.897e-5
-0.539, -1.897e-5
-0.540, -1.897e-5
-0.541, -1.895e-5
-0.542, -1.894e-5
-0.543, -1.892e-5
-0.544, -1.890e-5
-0.545, -1.889e-5
-0.546, -1.888e-5
-0.547, -1.888e-5
-0.548, -1.888e-5
-0.549, -1.888e-5
-0.550, -1.888e-5
-0.551, -1.889e-5
-0.552, -1.892e-5
-0.553, -1.893e-5
-0.554, -1.895e-5
-0.555, -1.897e-5
-0.556, -1.898e-5
-0.557, -1.898e-5
-0.558, -1.897e-5
-0.559, -1.897e-5
-0.560, -1.896e-5
-0.561, -1.895e-5
-0.562, -1.895e-5
-0.563, -1.894e-5
-0.564, -1.895e-5
-0.565, -1.894e-5
-0.566, -1.894e-5
-0.567, -1.896e-5
-0.568, -1.896e-5
-0.569, -1.897e-5
-0.570, -1.897e-5
-0.571, -1.897e-5
-0.572, -1.899e-5
-0.573, -1.899e-5
-0.574, -1.901e-5
-0.575, -1.902e-5
-0.576, -1.901e-5
-0.577, -1.903e-5
-0.578, -1.903e-5
-0.579, -1.904e-5
-0.580, -1.905e-5
-0.581, -1.904e-5
-0.582, -1.904e-5
-0.583, -1.902e-5
-0.584, -1.902e-5
-0.585, -1.902e-5
-0.586, -1.901e-5
-0.587, -1.902e-5
-0.588, -1.902e-5
-0.589, -1.902e-5
-0.590, -1.902e-5
-0.591, -1.902e-5
-0.592, -1.904e-5
-0.593, -1.905e-5
-0.594, -1.906e-5
-0.595, -1.907e-5
-0.596, -1.909e-5
-0.597, -1.910e-5
-0.598, -1.910e-5
-0.599, -1.911e-5
-0.600, -1.910e-5
-0.601, -1.909e-5
-0.602, -1.909e-5
-0.603, -1.908e-5
-0.604, -1.908e-5
-0.605, -1.906e-5
-0.606, -1.904e-5
-0.607, -1.903e-5
-0.608, -1.901e-5
-0.609, -1.901e-5
-0.610, -1.902e-5
-0.611, -1.904e-5
-0.612, -1.907e-5
-0.613, -1.909e-5
-0.614, -1.909e-5
-0.615, -1.911e-5
-0.616, -1.912e-5
-0.617, -1.913e-5
-0.618, -1.912e-5
-0.619, -1.912e-5
-0.620, -1.911e-5
-0.621, -1.910e-5
-0.622, -1.909e-5
-0.623, -1.908e-5
-0.624, -1.908e-5
-0.625, -1.908e-5
-0.626, -1.908e-5
-0.627, -1.908e-5
-0.628, -1.908e-5
-0.629, -1.909e-5
-0.630, -1.909e-5
-0.631, -1.910e-5
-0.632, -1.911e-5
-0.633, -1.910e-5
-0.634, -1.910e-5
-0.635, -1.910e-5
-0.636, -1.910e-5
-0.637, -1.910e-5
-0.638, -1.910e-5
-0.639, -1.911e-5
-0.640, -1.912e-5
-0.641, -1.911e-5
-0.642, -1.912e-5
-0.643, -1.911e-5
-0.644, -1.913e-5
-0.645, -1.914e-5
-0.646, -1.914e-5
-0.647, -1.915e-5
-0.648, -1.914e-5
-0.649, -1.914e-5
-0.650, -1.914e-5
-0.651, -1.913e-5
-0.652, -1.914e-5
-0.653, -1.912e-5
-0.654, -1.912e-5
-0.655, -1.912e-5
-0.656, -1.912e-5
-0.657, -1.913e-5
-0.658, -1.913e-5
-0.659, -1.915e-5
-0.660, -1.917e-5
-0.661, -1.919e-5
-0.662, -1.921e-5
-0.663, -1.922e-5
-0.664, -1.924e-5
-0.665, -1.925e-5
-0.666, -1.925e-5
-0.667, -1.926e-5
-0.668, -1.925e-5
-0.669, -1.925e-5
-0.670, -1.925e-5
-0.671, -1.925e-5
-0.672, -1.925e-5
-0.673, -1.925e-5
-0.674, -1.926e-5
-0.675, -1.926e-5
-0.676, -1.927e-5
-0.677, -1.928e-5
-0.678, -1.927e-5
-0.679, -1.929e-5
-0.680, -1.930e-5
-0.681, -1.930e-5
-0.682, -1.931e-5
-0.683, -1.932e-5
-0.684, -1.933e-5
-0.685, -1.934e-5
-0.686, -1.934e-5
-0.687, -1.935e-5
-0.688, -1.935e-5
-0.689, -1.935e-5
-0.690, -1.937e-5
-0.691, -1.938e-5
-0.692, -1.940e-5
-0.693, -1.939e-5
-0.694, -1.940e-5
-0.695, -1.941e-5
-0.696, -1.941e-5
-0.697, -1.943e-5
-0.698, -1.943e-5
-0.699, -1.943e-5
-0.700, -1.943e-5
-0.701, -1.943e-5
-0.702, -1.944e-5
-0.703, -1.945e-5
-0.704, -1.945e-5
-0.705, -1.946e-5
-0.706, -1.946e-5
-0.707, -1.947e-5
-0.708, -1.948e-5
-0.709, -1.950e-5
-0.710, -1.952e-5
-0.711, -1.954e-5
-0.712, -1.957e-5
-0.713, -1.958e-5
-0.714, -1.959e-5
-0.715, -1.959e-5
-0.716, -1.960e-5
-0.717, -1.962e-5
-0.718, -1.962e-5
-0.719, -1.961e-5
-0.720, -1.960e-5
-0.721, -1.959e-5
-0.722, -1.959e-5
-0.723, -1.959e-5
-0.724, -1.961e-5
-0.725, -1.963e-5
-0.726, -1.963e-5
-0.727, -1.964e-5
-0.728, -1.965e-5
-0.729, -1.966e-5
-0.730, -1.968e-5
-0.731, -1.969e-5
-0.732, -1.972e-5
-0.733, -1.974e-5
-0.734, -1.976e-5
-0.735, -1.977e-5
-0.736, -1.977e-5
-0.737, -1.978e-5
-0.738, -1.979e-5
-0.739, -1.980e-5
-0.740, -1.980e-5
-0.741, -1.980e-5
-0.742, -1.981e-5
-0.743, -1.982e-5
-0.744, -1.984e-5
-0.745, -1.986e-5
-0.746, -1.988e-5
-0.747, -1.990e-5
-0.748, -1.992e-5
-0.749, -1.995e-5
-0.750, -1.997e-5
-0.751, -2.000e-5
-0.752, -2.002e-5
-0.753, -2.004e-5
-0.754, -2.006e-5
-0.755, -2.006e-5
-0.756, -2.008e-5
-0.757, -2.010e-5
-0.758, -2.010e-5
-0.759, -2.012e-5
-0.760, -2.013e-5
-0.761, -2.014e-5
-0.762, -2.016e-5
-0.763, -2.018e-5
-0.764, -2.023e-5
-0.765, -2.025e-5
-0.766, -2.029e-5
-0.767, -2.033e-5
-0.768, -2.035e-5
-0.769, -2.040e-5
-0.770, -2.044e-5
-0.771, -2.047e-5
-0.772, -2.051e-5
-0.773, -2.053e-5
-0.774, -2.055e-5
-0.775, -2.058e-5
-0.776, -2.060e-5
-0.777, -2.063e-5
-0.778, -2.064e-5
-0.779, -2.067e-5
-0.780, -2.069e-5
-0.781, -2.072e-5
-0.782, -2.077e-5
-0.783, -2.080e-5
-0.784, -2.084e-5
-0.785, -2.088e-5
-0.786, -2.092e-5
-0.787, -2.097e-5
-0.788, -2.102e-5
-0.789, -2.109e-5
-0.790, -2.112e-5
-0.791, -2.117e-5
-0.792, -2.122e-5
-0.793, -2.128e-5
-0.794, -2.134e-5
-0.795, -2.138e-5
-0.796, -2.142e-5
-0.797, -2.146e-5
-0.798, -2.148e-5
-0.799, -2.153e-5
-0.800, -2.157e-5
-0.801, -2.162e-5
-0.802, -2.168e-5
-0.803, -2.173e-5
-0.804, -2.181e-5
-0.805, -2.187e-5
-0.806, -2.193e-5
-0.807, -2.202e-5
-0.808, -2.210e-5
-0.809, -2.218e-5
-0.810, -2.225e-5
-0.811, -2.233e-5
-0.812, -2.241e-5
-0.813, -2.247e-5
-0.814, -2.255e-5
-0.815, -2.261e-5
-0.816, -2.267e-5
-0.817, -2.274e-5
-0.818, -2.280e-5
-0.819, -2.286e-5
-0.820, -2.295e-5
-0.821, -2.304e-5
-0.822, -2.314e-5
-0.823, -2.324e-5
-0.824, -2.335e-5
-0.825, -2.346e-5
-0.826, -2.357e-5
-0.827, -2.369e-5
-0.828, -2.383e-5
-0.829, -2.396e-5
-0.830, -2.409e-5
-0.831, -2.422e-5
-0.832, -2.432e-5
-0.833, -2.445e-5
-0.834, -2.459e-5
-0.835, -2.471e-5
-0.836, -2.485e-5
-0.837, -2.499e-5
-0.838, -2.512e-5
-0.839, -2.529e-5
-0.840, -2.542e-5
-0.841, -2.558e-5
-0.842, -2.575e-5
-0.843, -2.591e-5
-0.844, -2.613e-5
-0.845, -2.635e-5
-0.846, -2.655e-5
-0.847, -2.677e-5
-0.848, -2.697e-5
-0.849, -2.722e-5
-0.850, -2.745e-5
-0.851, -2.769e-5
-0.852, -2.793e-5
-0.853, -2.815e-5
-0.854, -2.838e-5
-0.855, -2.859e-5
-0.856, -2.885e-5
-0.857, -2.908e-5
-0.858, -2.930e-5
-0.859, -2.956e-5
-0.860, -2.983e-5
-0.861, -3.011e-5
-0.862, -3.040e-5
-0.863, -3.069e-5
-0.864, -3.102e-5
-0.865, -3.134e-5
-0.866, -3.169e-5
-0.867, -3.200e-5
-0.868, -3.234e-5
-0.869, -3.268e-5
-0.870, -3.299e-5
-0.871, -3.334e-5
-0.872, -3.368e-5
-0.873, -3.402e-5
-0.874, -3.439e-5
-0.875, -3.472e-5
-0.876, -3.510e-5
-0.877, -3.547e-5
-0.878, -3.585e-5
-0.879, -3.625e-5
-0.880, -3.663e-5
-0.881, -3.705e-5
-0.882, -3.746e-5
-0.883, -3.783e-5
-0.884, -3.830e-5
-0.885, -3.871e-5
-0.886, -3.917e-5
-0.887, -3.963e-5
-0.888, -4.007e-5
-0.889, -4.056e-5
-0.890, -4.098e-5
-0.891, -4.146e-5
-0.892, -4.194e-5
-0.893, -4.240e-5
-0.894, -4.291e-5
-0.895, -4.337e-5
-0.896, -4.397e-5
-0.897, -4.445e-5
-0.898, -4.494e-5
-0.899, -4.549e-5
-0.900, -4.602e-5
-0.901, -4.658e-5
-0.902, -4.710e-5
-0.903, -4.766e-5
-0.904, -4.828e-5
-0.905, -4.881e-5
-0.906, -4.939e-5
-0.907, -4.996e-5
-0.908, -5.056e-5
-0.909, -5.111e-5
-0.910, -5.170e-5
-0.911, -5.235e-5
-0.912, -5.295e-5
-0.913, -5.356e-5
-0.914, -5.424e-5
-0.915, -5.484e-5
-0.916, -5.558e-5
-0.917, -5.624e-5
-0.918, -5.689e-5
-0.919, -5.761e-5
-0.920, -5.824e-5
-0.921, -5.900e-5
-0.922, -5.970e-5
-0.923, -6.035e-5
-0.924, -6.109e-5
-0.925, -6.175e-5
-0.926, -6.250e-5
-0.927, -6.322e-5
-0.928, -6.395e-5
-0.929, -6.474e-5
-0.930, -6.543e-5
-0.931, -6.622e-5
-0.932, -6.697e-5
-0.933, -6.769e-5
-0.934, -6.847e-5
-0.935, -6.922e-5
-0.936, -7.003e-5
-0.937, -7.081e-5
-0.938, -7.158e-5
-0.939, -7.239e-5
-0.940, -7.316e-5
-0.941, -7.395e-5
-0.942, -7.469e-5
-0.943, -7.547e-5
-0.944, -7.627e-5
-0.945, -7.704e-5
-0.946, -7.785e-5
-0.947, -7.871e-5
-0.948, -7.946e-5
-0.949, -8.028e-5
-0.950, -8.101e-5
-0.951, -8.183e-5
-0.952, -8.261e-5
-0.953, -8.333e-5
-0.954, -8.415e-5
-0.955, -8.485e-5
-0.956, -8.568e-5
-0.957, -8.641e-5
-0.958, -8.712e-5
-0.959, -8.790e-5
-0.960, -8.849e-5
-0.961, -8.929e-5
-0.962, -9.000e-5
-0.963, -9.067e-5
-0.964, -9.140e-5
-0.965, -9.206e-5
-0.966, -9.278e-5
-0.967, -9.345e-5
-0.968, -9.410e-5
-0.969, -9.481e-5
-0.970, -9.541e-5
-0.971, -9.606e-5
-0.972, -9.670e-5
-0.973, -9.729e-5
-0.974, -9.791e-5
-0.975, -9.848e-5
-0.976, -9.908e-5
-0.977, -9.966e-5
-0.978, -1.002e-4
-0.979, -1.007e-4
-0.980, -1.013e-4
-0.981, -1.018e-4
-0.982, -1.023e-4
-0.983, -1.028e-4
-0.984, -1.033e-4
-0.985, -1.037e-4
-0.986, -1.042e-4
-0.987, -1.046e-4
-0.988, -1.051e-4
-0.989, -1.056e-4
-0.990, -1.060e-4
-0.991, -1.064e-4
-0.992, -1.068e-4
-0.993, -1.072e-4
-0.994, -1.076e-4
-0.995, -1.079e-4
-0.996, -1.083e-4
-0.997, -1.086e-4
-0.998, -1.090e-4
-0.999, -1.093e-4
-1.000, -1.095e-4
-1.001, -1.099e-4
-1.002, -1.102e-4
-1.003, -1.105e-4
-1.004, -1.108e-4
-1.005, -1.110e-4
-1.006, -1.113e-4
-1.007, -1.116e-4
-1.008, -1.118e-4
-1.009, -1.121e-4
-1.010, -1.123e-4
-1.011, -1.125e-4
-1.012, -1.127e-4
-1.013, -1.129e-4
-1.014, -1.131e-4
-1.015, -1.132e-4
-1.016, -1.134e-4
-1.017, -1.136e-4
-1.018, -1.137e-4
-1.019, -1.139e-4
-1.020, -1.140e-4
-1.021, -1.142e-4
-1.022, -1.143e-4
-1.023, -1.145e-4
-1.024, -1.146e-4
-1.025, -1.147e-4
-1.026, -1.149e-4
-1.027, -1.150e-4
-1.028, -1.151e-4
-1.029, -1.152e-4
-1.030, -1.153e-4
-1.031, -1.154e-4
-1.032, -1.155e-4
-1.033, -1.156e-4
-1.034, -1.157e-4
-1.035, -1.157e-4
-1.036, -1.158e-4
-1.037, -1.159e-4
-1.038, -1.159e-4
-1.039, -1.160e-4
-1.040, -1.161e-4
-1.041, -1.162e-4
-1.042, -1.162e-4
-1.043, -1.163e-4
-1.044, -1.164e-4
-1.045, -1.164e-4
-1.046, -1.165e-4
-1.047, -1.165e-4
-1.048, -1.166e-4
-1.049, -1.166e-4
-1.050, -1.167e-4
-1.051, -1.167e-4
-1.052, -1.168e-4
-1.053, -1.168e-4
-1.054, -1.168e-4
-1.055, -1.169e-4
-1.056, -1.169e-4
-1.057, -1.169e-4
-1.058, -1.170e-4
-1.059, -1.170e-4
-1.060, -1.170e-4
-1.061, -1.170e-4
-1.062, -1.170e-4
-1.063, -1.171e-4
-1.064, -1.171e-4
-1.065, -1.171e-4
-1.066, -1.172e-4
-1.067, -1.172e-4
-1.068, -1.172e-4
-1.069, -1.173e-4
-1.070, -1.173e-4
-1.071, -1.173e-4
-1.072, -1.173e-4
-1.073, -1.173e-4
-1.074, -1.173e-4
-1.075, -1.173e-4
-1.076, -1.173e-4
-1.077, -1.173e-4
-1.078, -1.173e-4
-1.079, -1.174e-4
-1.080, -1.174e-4
-1.081, -1.174e-4
-1.082, -1.174e-4
-1.083, -1.175e-4
-1.084, -1.175e-4
-1.085, -1.175e-4
-1.086, -1.175e-4
-1.087, -1.175e-4
-1.088, -1.175e-4
-1.089, -1.176e-4
-1.090, -1.175e-4
-1.091, -1.175e-4
-1.092, -1.175e-4
-1.093, -1.175e-4
-1.094, -1.175e-4
-1.095, -1.175e-4
-1.096, -1.176e-4
-1.097, -1.176e-4
-1.098, -1.176e-4
-1.099, -1.176e-4
-1.100, -1.177e-4
-1.101, -1.177e-4
-1.102, -1.177e-4
-1.103, -1.177e-4
-1.104, -1.178e-4
-1.105, -1.178e-4
-1.106, -1.178e-4
-1.107, -1.178e-4
-1.108, -1.178e-4
-1.109, -1.178e-4
-1.110, -1.178e-4
-1.111, -1.178e-4
-1.112, -1.178e-4
-1.113, -1.178e-4
-1.114, -1.178e-4
-1.115, -1.179e-4
-1.116, -1.179e-4
-1.117, -1.179e-4
-1.118, -1.179e-4
-1.119, -1.180e-4
-1.120, -1.180e-4
-1.121, -1.180e-4
-1.122, -1.181e-4
-1.123, -1.181e-4
-1.124, -1.181e-4
-1.125, -1.181e-4
-1.126, -1.181e-4
-1.127, -1.182e-4
-1.128, -1.182e-4
-1.129, -1.182e-4
-1.130, -1.182e-4
-1.131, -1.182e-4
-1.132, -1.183e-4
-1.133, -1.183e-4
-1.134, -1.183e-4
-1.135, -1.184e-4
-1.136, -1.184e-4
-1.137, -1.185e-4
-1.138, -1.185e-4
-1.139, -1.185e-4
-1.140, -1.186e-4
-1.141, -1.186e-4
-1.142, -1.187e-4
-1.143, -1.187e-4
-1.144, -1.187e-4
-1.145, -1.188e-4
-1.146, -1.188e-4
-1.147, -1.188e-4
-1.148, -1.189e-4
-1.149, -1.189e-4
-1.150, -1.190e-4
-1.151, -1.190e-4
-1.152, -1.191e-4
-1.153, -1.191e-4
-1.154, -1.192e-4
-1.155, -1.192e-4
-1.156, -1.193e-4
-1.157, -1.194e-4
-1.158, -1.194e-4
-1.159, -1.195e-4
-1.160, -1.195e-4
-1.161, -1.196e-4
-1.162, -1.196e-4
-1.163, -1.197e-4
-1.164, -1.198e-4
-1.165, -1.198e-4
-1.166, -1.199e-4
-1.167, -1.199e-4
-1.168, -1.200e-4
-1.169, -1.201e-4
-1.170, -1.202e-4
-1.171, -1.202e-4
-1.172, -1.203e-4
-1.173, -1.204e-4
-1.174, -1.205e-4
-1.175, -1.206e-4
-1.176, -1.206e-4
-1.177, -1.207e-4
-1.178, -1.208e-4
-1.179, -1.209e-4
-1.180, -1.210e-4
-1.181, -1.211e-4
-1.182, -1.211e-4
-1.183, -1.212e-4
-1.184, -1.213e-4
-1.185, -1.214e-4
-1.186, -1.215e-4
-1.187, -1.216e-4
-1.188, -1.217e-4
-1.189, -1.218e-4
-1.190, -1.219e-4
-1.191, -1.220e-4
-1.192, -1.221e-4
-1.193, -1.222e-4
-1.194, -1.223e-4
-1.195, -1.224e-4
-1.196, -1.226e-4
-1.197, -1.227e-4
-1.198, -1.228e-4
-1.199, -1.230e-4
-1.200, -1.231e-4
-1.201, -1.232e-4
-1.202, -1.234e-4
-1.203, -1.235e-4
-1.204, -1.237e-4
-1.205, -1.238e-4
-1.206, -1.240e-4
-1.207, -1.241e-4
-1.208, -1.242e-4
-1.209, -1.244e-4
-1.210, -1.245e-4
-1.211, -1.247e-4
-1.212, -1.249e-4
-1.213, -1.250e-4
-1.214, -1.252e-4
-1.215, -1.253e-4
-1.216, -1.255e-4
-1.217, -1.257e-4
-1.218, -1.259e-4
-1.219, -1.261e-4
-1.220, -1.262e-4
-1.221, -1.264e-4
-1.222, -1.266e-4
-1.223, -1.268e-4
-1.224, -1.270e-4
-1.225, -1.272e-4
-1.226, -1.274e-4
-1.227, -1.276e-4
-1.228, -1.278e-4
-1.229, -1.280e-4
-1.230, -1.282e-4
-1.231, -1.284e-4
-1.232, -1.286e-4
-1.233, -1.288e-4
-1.234, -1.290e-4
-1.235, -1.292e-4
-1.236, -1.295e-4
-1.237, -1.297e-4
-1.238, -1.299e-4
-1.239, -1.302e-4
-1.240, -1.304e-4
-1.241, -1.306e-4
-1.242, -1.308e-4
-1.243, -1.310e-4
-1.244, -1.313e-4
-1.245, -1.315e-4
-1.246, -1.317e-4
-1.247, -1.319e-4
-1.248, -1.321e-4
-1.249, -1.324e-4
-1.250, -1.326e-4
-1.251, -1.329e-4
-1.252, -1.331e-4
-1.253, -1.333e-4
-1.254, -1.336e-4
-1.255, -1.338e-4
-1.256, -1.341e-4
-1.257, -1.343e-4
-1.258, -1.345e-4
-1.259, -1.348e-4
-1.260, -1.350e-4
-1.261, -1.352e-4
-1.262, -1.354e-4
-1.263, -1.357e-4
-1.264, -1.359e-4
-1.265, -1.361e-4
-1.266, -1.363e-4
-1.267, -1.365e-4
-1.268, -1.367e-4
-1.269, -1.370e-4
-1.270, -1.372e-4
-1.271, -1.374e-4
-1.272, -1.376e-4
-1.273, -1.378e-4
-1.274, -1.380e-4
-1.275, -1.382e-4
-1.276, -1.384e-4
-1.277, -1.386e-4
-1.278, -1.388e-4
-1.279, -1.390e-4
-1.280, -1.391e-4
-1.281, -1.393e-4
-1.282, -1.395e-4
-1.283, -1.396e-4
-1.284, -1.398e-4
-1.285, -1.400e-4
-1.286, -1.402e-4
-1.287, -1.403e-4
-1.288, -1.405e-4
-1.289, -1.406e-4
-1.290, -1.408e-4
-1.291, -1.410e-4
-1.292, -1.411e-4
-1.293, -1.413e-4
-1.294, -1.414e-4
-1.295, -1.415e-4
-1.296, -1.417e-4
-1.297, -1.418e-4
-1.298, -1.419e-4
-1.299, -1.420e-4
-1.300, -1.412e-4
-1.299, -1.399e-4
-1.298, -1.389e-4
-1.297, -1.380e-4
-1.296, -1.373e-4
-1.295, -1.365e-4
-1.294, -1.358e-4
-1.293, -1.352e-4
-1.292, -1.345e-4
-1.291, -1.339e-4
-1.290, -1.333e-4
-1.289, -1.327e-4
-1.288, -1.321e-4
-1.287, -1.315e-4
-1.286, -1.310e-4
-1.285, -1.304e-4
-1.284, -1.298e-4
-1.283, -1.293e-4
-1.282, -1.288e-4
-1.281, -1.283e-4
-1.280, -1.277e-4
-1.279, -1.272e-4
-1.278, -1.267e-4
-1.277, -1.262e-4
-1.276, -1.257e-4
-1.275, -1.252e-4
-1.274, -1.247e-4
-1.273, -1.242e-4
-1.272, -1.237e-4
-1.271, -1.233e-4
-1.270, -1.228e-4
-1.269, -1.224e-4
-1.268, -1.220e-4
-1.267, -1.216e-4
-1.266, -1.212e-4
-1.265, -1.207e-4
-1.264, -1.203e-4
-1.263, -1.199e-4
-1.262, -1.195e-4
-1.261, -1.191e-4
-1.260, -1.187e-4
-1.259, -1.183e-4
-1.258, -1.179e-4
-1.257, -1.175e-4
-1.256, -1.172e-4
-1.255, -1.167e-4
-1.254, -1.164e-4
-1.253, -1.160e-4
-1.252, -1.157e-4
-1.251, -1.153e-4
-1.250, -1.150e-4
-1.249, -1.147e-4
-1.248, -1.144e-4
-1.247, -1.140e-4
-1.246, -1.138e-4
-1.245, -1.135e-4
-1.244, -1.132e-4
-1.243, -1.129e-4
-1.242, -1.127e-4
-1.241, -1.124e-4
-1.240, -1.121e-4
-1.239, -1.118e-4
-1.238, -1.115e-4
-1.237, -1.113e-4
-1.236, -1.110e-4
-1.235, -1.107e-4
-1.234, -1.104e-4
-1.233, -1.102e-4
-1.232, -1.099e-4
-1.231, -1.097e-4
-1.230, -1.095e-4
-1.229, -1.093e-4
-1.228, -1.091e-4
-1.227, -1.088e-4
-1.226, -1.086e-4
-1.225, -1.084e-4
-1.224, -1.083e-4
-1.223, -1.081e-4
-1.222, -1.079e-4
-1.221, -1.077e-4
-1.220, -1.075e-4
-1.219, -1.073e-4
-1.218, -1.072e-4
-1.217, -1.070e-4
-1.216, -1.068e-4
-1.215, -1.066e-4
-1.214, -1.064e-4
-1.213, -1.062e-4
-1.212, -1.060e-4
-1.211, -1.059e-4
-1.210, -1.057e-4
-1.209, -1.056e-4
-1.208, -1.054e-4
-1.207, -1.053e-4
-1.206, -1.052e-4
-1.205, -1.051e-4
-1.204, -1.050e-4
-1.203, -1.048e-4
-1.202, -1.047e-4
-1.201, -1.046e-4
-1.200, -1.045e-4
-1.199, -1.044e-4
-1.198, -1.043e-4
-1.197, -1.041e-4
-1.196, -1.040e-4
-1.195, -1.039e-4
-1.194, -1.038e-4
-1.193, -1.036e-4
-1.192, -1.035e-4
-1.191, -1.034e-4
-1.190, -1.033e-4
-1.189, -1.032e-4
-1.188, -1.032e-4
-1.187, -1.031e-4
-1.186, -1.030e-4
-1.185, -1.030e-4
-1.184, -1.029e-4
-1.183, -1.028e-4
-1.182, -1.028e-4
-1.181, -1.027e-4
-1.180, -1.026e-4
-1.179, -1.025e-4
-1.178, -1.024e-4
-1.177, -1.024e-4
-1.176, -1.023e-4
-1.175, -1.022e-4
-1.174, -1.021e-4
-1.173, -1.020e-4
-1.172, -1.019e-4
-1.171, -1.019e-4
-1.170, -1.018e-4
-1.169, -1.018e-4
-1.168, -1.018e-4
-1.167, -1.017e-4
-1.166, -1.017e-4
-1.165, -1.017e-4
-1.164, -1.017e-4
-1.163, -1.016e-4
-1.162, -1.016e-4
-1.161, -1.015e-4
-1.160, -1.015e-4
-1.159, -1.014e-4
-1.158, -1.014e-4
-1.157, -1.013e-4
-1.156, -1.013e-4
-1.155, -1.012e-4
-1.154, -1.011e-4
-1.153, -1.011e-4
-1.152, -1.010e-4
-1.151, -1.010e-4
-1.150, -1.010e-4
-1.149, -1.009e-4
-1.148, -1.009e-4
-1.147, -1.009e-4
-1.146, -1.009e-4
-1.145, -1.009e-4
-1.144, -1.009e-4
-1.143, -1.009e-4
-1.142, -1.008e-4
-1.141, -1.008e-4
-1.140, -1.007e-4
-1.139, -1.007e-4
-1.138, -1.007e-4
-1.137, -1.006e-4
-1.136, -1.006e-4
-1.135, -1.006e-4
-1.134, -1.005e-4
-1.133, -1.005e-4
-1.132, -1.004e-4
-1.131, -1.004e-4
-1.130, -1.004e-4
-1.129, -1.004e-4
-1.128, -1.004e-4
-1.127, -1.003e-4
-1.126, -1.003e-4
-1.125, -1.003e-4
-1.124, -1.003e-4
-1.123, -1.003e-4
-1.122, -1.003e-4
-1.121, -1.002e-4
-1.120, -1.002e-4
-1.119, -1.002e-4
-1.118, -1.002e-4
-1.117, -1.001e-4
-1.116, -1.001e-4
-1.115, -1.001e-4
-1.114, -1.000e-4
-1.113, -1.000e-4
-1.112, -9.995e-5
-1.111, -9.990e-5
-1.110, -9.986e-5
-1.109, -9.985e-5
-1.108, -9.984e-5
-1.107, -9.981e-5
-1.106, -9.982e-5
-1.105, -9.980e-5
-1.104, -9.980e-5
-1.103, -9.980e-5
-1.102, -9.977e-5
-1.101, -9.975e-5
-1.100, -9.971e-5
-1.099, -9.968e-5
-1.098, -9.962e-5
-1.097, -9.957e-5
-1.096, -9.953e-5
-1.095, -9.949e-5
-1.094, -9.946e-5
-1.093, -9.943e-5
-1.092, -9.939e-5
-1.091, -9.938e-5
-1.090, -9.935e-5
-1.089, -9.934e-5
-1.088, -9.933e-5
-1.087, -9.929e-5
-1.086, -9.927e-5
-1.085, -9.924e-5
-1.084, -9.921e-5
-1.083, -9.918e-5
-1.082, -9.914e-5
-1.081, -9.910e-5
-1.080, -9.904e-5
-1.079, -9.900e-5
-1.078, -9.895e-5
-1.077, -9.891e-5
-1.076, -9.888e-5
-1.075, -9.883e-5
-1.074, -9.879e-5
-1.073, -9.874e-5
-1.072, -9.868e-5
-1.071, -9.865e-5
-1.070, -9.861e-5
-1.069, -9.857e-5
-1.068, -9.852e-5
-1.067, -9.846e-5
-1.066, -9.841e-5
-1.065, -9.833e-5
-1.064, -9.828e-5
-1.063, -9.822e-5
-1.062, -9.815e-5
-1.061, -9.808e-5
-1.060, -9.799e-5
-1.059, -9.793e-5
-1.058, -9.784e-5
-1.057, -9.777e-5
-1.056, -9.769e-5
-1.055, -9.760e-5
-1.054, -9.753e-5
-1.053, -9.744e-5
-1.052, -9.734e-5
-1.051, -9.726e-5
-1.050, -9.713e-5
-1.049, -9.703e-5
-1.048, -9.692e-5
-1.047, -9.680e-5
-1.046, -9.668e-5
-1.045, -9.656e-5
-1.044, -9.644e-5
-1.043, -9.631e-5
-1.042, -9.618e-5
-1.041, -9.606e-5
-1.040, -9.591e-5
-1.039, -9.577e-5
-1.038, -9.561e-5
-1.037, -9.547e-5
-1.036, -9.531e-5
-1.035, -9.512e-5
-1.034, -9.496e-5
-1.033, -9.477e-5
-1.032, -9.459e-5
-1.031, -9.440e-5
-1.030, -9.419e-5
-1.029, -9.400e-5
-1.028, -9.379e-5
-1.027, -9.357e-5
-1.026, -9.335e-5
-1.025, -9.310e-5
-1.024, -9.292e-5
-1.023, -9.263e-5
-1.022, -9.237e-5
-1.021, -9.213e-5
-1.020, -9.182e-5
-1.019, -9.156e-5
-1.018, -9.124e-5
-1.017, -9.095e-5
-1.016, -9.067e-5
-1.015, -9.033e-5
-1.014, -9.004e-5
-1.013, -8.971e-5
-1.012, -8.937e-5
-1.011, -8.906e-5
-1.010, -8.865e-5
-1.009, -8.828e-5
-1.008, -8.787e-5
-1.007, -8.743e-5
-1.006, -8.702e-5
-1.005, -8.656e-5
-1.004, -8.612e-5
-1.003, -8.564e-5
-1.002, -8.517e-5
-1.001, -8.471e-5
-1.000, -8.422e-5
-0.999, -8.375e-5
-0.998, -8.322e-5
-0.997, -8.274e-5
-0.996, -8.221e-5
-0.995, -8.163e-5
-0.994, -8.111e-5
-0.993, -8.053e-5
-0.992, -7.996e-5
-0.991, -7.934e-5
-0.990, -7.868e-5
-0.989, -7.811e-5
-0.988, -7.740e-5
-0.987, -7.676e-5
-0.986, -7.616e-5
-0.985, -7.546e-5
-0.984, -7.481e-5
-0.983, -7.408e-5
-0.982, -7.339e-5
-0.981, -7.271e-5
-0.980, -7.195e-5
-0.979, -7.127e-5
-0.978, -7.048e-5
-0.977, -6.974e-5
-0.976, -6.901e-5
-0.975, -6.818e-5
-0.974, -6.746e-5
-0.973, -6.668e-5
-0.972, -6.590e-5
-0.971, -6.510e-5
-0.970, -6.423e-5
-0.969, -6.345e-5
-0.968, -6.257e-5
-0.967, -6.176e-5
-0.966, -6.089e-5
-0.965, -6.001e-5
-0.964, -5.921e-5
-0.963, -5.828e-5
-0.962, -5.744e-5
-0.961, -5.664e-5
-0.960, -5.581e-5
-0.959, -5.498e-5
-0.958, -5.406e-5
-0.957, -5.327e-5
-0.956, -5.239e-5
-0.955, -5.152e-5
-0.954, -5.075e-5
-0.953, -4.986e-5
-0.952, -4.906e-5
-0.951, -4.818e-5
-0.950, -4.727e-5
-0.949, -4.652e-5
-0.948, -4.564e-5
-0.947, -4.473e-5
-0.946, -4.395e-5
-0.945, -4.309e-5
-0.944, -4.235e-5
-0.943, -4.148e-5
-0.942, -4.071e-5
-0.941, -3.996e-5
-0.940, -3.914e-5
-0.939, -3.840e-5
-0.938, -3.764e-5
-0.937, -3.694e-5
-0.936, -3.624e-5
-0.935, -3.550e-5
-0.934, -3.489e-5
-0.933, -3.416e-5
-0.932, -3.348e-5
-0.931, -3.280e-5
-0.930, -3.214e-5
-0.929, -3.148e-5
-0.928, -3.081e-5
-0.927, -3.016e-5
-0.926, -2.954e-5
-0.925, -2.890e-5
-0.924, -2.831e-5
-0.923, -2.767e-5
-0.922, -2.707e-5
-0.921, -2.653e-5
-0.920, -2.597e-5
-0.919, -2.544e-5
-0.918, -2.492e-5
-0.917, -2.446e-5
-0.916, -2.397e-5
-0.915, -2.349e-5
-0.914, -2.305e-5
-0.913, -2.259e-5
-0.912, -2.216e-5
-0.911, -2.175e-5
-0.910, -2.130e-5
-0.909, -2.099e-5
-0.908, -2.056e-5
-0.907, -2.015e-5
-0.906, -1.977e-5
-0.905, -1.937e-5
-0.904, -1.905e-5
-0.903, -1.867e-5
-0.902, -1.837e-5
-0.901, -1.807e-5
-0.900, -1.774e-5
-0.899, -1.748e-5
-0.898, -1.718e-5
-0.897, -1.694e-5
-0.896, -1.670e-5
-0.895, -1.643e-5
-0.894, -1.624e-5
-0.893, -1.602e-5
-0.892, -1.584e-5
-0.891, -1.564e-5
-0.890, -1.545e-5
-0.889, -1.528e-5
-0.888, -1.507e-5
-0.887, -1.489e-5
-0.886, -1.473e-5
-0.885, -1.456e-5
-0.884, -1.443e-5
-0.883, -1.430e-5
-0.882, -1.416e-5
-0.881, -1.404e-5
-0.880, -1.393e-5
-0.879, -1.385e-5
-0.878, -1.376e-5
-0.877, -1.369e-5
-0.876, -1.363e-5
-0.875, -1.355e-5
-0.874, -1.351e-5
-0.873, -1.343e-5
-0.872, -1.336e-5
-0.871, -1.329e-5
-0.870, -1.321e-5
-0.869, -1.318e-5
-0.868, -1.311e-5
-0.867, -1.304e-5
-0.866, -1.300e-5
-0.865, -1.293e-5
-0.864, -1.290e-5
-0.863, -1.285e-5
-0.862, -1.283e-5
-0.861, -1.282e-5
-0.860, -1.279e-5
-0.859, -1.279e-5
-0.858, -1.278e-5
-0.857, -1.276e-5
-0.856, -1.276e-5
-0.855, -1.274e-5
-0.854, -1.274e-5
-0.853, -1.272e-5
-0.852, -1.269e-5
-0.851, -1.267e-5
-0.850, -1.263e-5
-0.849, -1.262e-5
-0.848, -1.261e-5
-0.847, -1.260e-5
-0.846, -1.261e-5
-0.845, -1.259e-5
-0.844, -1.260e-5
-0.843, -1.260e-5
-0.842, -1.260e-5
-0.841, -1.261e-5
-0.840, -1.262e-5
-0.839, -1.265e-5
-0.838, -1.265e-5
-0.837, -1.266e-5
-0.836, -1.266e-5
-0.835, -1.265e-5
-0.834, -1.266e-5
-0.833, -1.266e-5
-0.832, -1.267e-5
-0.831, -1.267e-5
-0.830, -1.266e-5
-0.829, -1.267e-5
-0.828, -1.266e-5
-0.827, -1.268e-5
-0.826, -1.271e-5
-0.825, -1.273e-5
-0.824, -1.277e-5
-0.823, -1.280e-5
-0.822, -1.282e-5
-0.821, -1.284e-5
-0.820, -1.285e-5
-0.819, -1.289e-5
-0.818, -1.290e-5
-0.817, -1.291e-5
-0.816, -1.293e-5
-0.815, -1.293e-5
-0.814, -1.294e-5
-0.813, -1.295e-5
-0.812, -1.295e-5
-0.811, -1.298e-5
-0.810, -1.300e-5
-0.809, -1.303e-5
-0.808, -1.305e-5
-0.807, -1.307e-5
-0.806, -1.309e-5
-0.805, -1.310e-5
-0.804, -1.314e-5
-0.803, -1.317e-5
-0.802, -1.319e-5
-0.801, -1.323e-5
-0.800, -1.323e-5
-0.799, -1.325e-5
-0.798, -1.327e-5
-0.797, -1.329e-5
-0.796, -1.332e-5
-0.795, -1.332e-5
-0.794, -1.333e-5
-0.793, -1.336e-5
-0.792, -1.338e-5
-0.791, -1.342e-5
-0.790, -1.343e-5
-0.789, -1.346e-5
-0.788, -1.349e-5
-0.787, -1.351e-5
-0.786, -1.354e-5
-0.785, -1.355e-5
-0.784, -1.358e-5
-0.783, -1.360e-5
-0.782, -1.362e-5
-0.781, -1.366e-5
-0.780, -1.366e-5
-0.779, -1.369e-5
-0.778, -1.371e-5
-0.777, -1.373e-5
-0.776, -1.375e-5
-0.775, -1.375e-5
-0.774, -1.377e-5
-0.773, -1.379e-5
-0.772, -1.380e-5
-0.771, -1.382e-5
-0.770, -1.383e-5
-0.769, -1.385e-5
-0.768, -1.387e-5
-0.767, -1.389e-5
-0.766, -1.392e-5
-0.765, -1.393e-5
-0.764, -1.395e-5
-0.763, -1.396e-5
-0.762, -1.397e-5
-0.761, -1.399e-5
-0.760, -1.399e-5
-0.759, -1.400e-5
-0.758, -1.401e-5
-0.757, -1.401e-5
-0.756, -1.403e-5
-0.755, -1.403e-5
-0.754, -1.404e-5
-0.753, -1.405e-5
-0.752, -1.405e-5
-0.751, -1.407e-5
-0.750, -1.408e-5
-0.749, -1.409e-5
-0.748, -1.410e-5
-0.747, -1.411e-5
-0.746, -1.414e-5
-0.745, -1.415e-5
-0.744, -1.417e-5
-0.743, -1.417e-5
-0.742, -1.417e-5
-0.741, -1.418e-5
-0.740, -1.417e-5
-0.739, -1.417e-5
-0.738, -1.417e-5
-0.737, -1.417e-5
-0.736, -1.417e-5
-0.735, -1.416e-5
-0.734, -1.418e-5
-0.733, -1.419e-5
-0.732, -1.420e-5
-0.731, -1.422e-5
-0.730, -1.424e-5
-0.729, -1.426e-5
-0.728, -1.427e-5
-0.727, -1.427e-5
-0.726, -1.428e-5
-0.725, -1.428e-5
-0.724, -1.429e-5
-0.723, -1.430e-5
-0.722, -1.429e-5
-0.721, -1.428e-5
-0.720, -1.426e-5
-0.719, -1.425e-5
-0.718, -1.425e-5
-0.717, -1.424e-5
-0.716, -1.425e-5
-0.715, -1.426e-5
-0.714, -1.429e-5
-0.713, -1.430e-5
-0.712, -1.430e-5
-0.711, -1.431e-5
-0.710, -1.431e-5
-0.709, -1.432e-5
-0.708, -1.432e-5
-0.707, -1.433e-5
-0.706, -1.435e-5
-0.705, -1.434e-5
-0.704, -1.434e-5
-0.703, -1.433e-5
-0.702, -1.432e-5
-0.701, -1.433e-5
-0.700, -1.434e-5
-0.699, -1.435e-5
-0.698, -1.435e-5
-0.697, -1.434e-5
-0.696, -1.434e-5
-0.695, -1.433e-5
-0.694, -1.434e-5
-0.693, -1.434e-5
-0.692, -1.433e-5
-0.691, -1.432e-5
-0.690, -1.432e-5
-0.689, -1.432e-5
-0.688, -1.432e-5
-0.687, -1.432e-5
-0.686, -1.434e-5
-0.685, -1.435e-5
-0.684, -1.435e-5
-0.683, -1.435e-5
-0.682, -1.435e-5
-0.681, -1.436e-5
-0.680, -1.437e-5
-0.679, -1.438e-5
-0.678, -1.438e-5
-0.677, -1.437e-5
-0.676, -1.436e-5
-0.675, -1.435e-5
-0.674, -1.435e-5
-0.673, -1.434e-5
-0.672, -1.433e-5
-0.671, -1.433e-5
-0.670, -1.432e-5
-0.669, -1.433e-5
-0.668, -1.433e-5
-0.667, -1.434e-5
-0.666, -1.436e-5
-0.665, -1.436e-5
-0.664, -1.438e-5
-0.663, -1.437e-5
-0.662, -1.437e-5
-0.661, -1.437e-5
-0.660, -1.435e-5
-0.659, -1.435e-5
-0.658, -1.435e-5
-0.657, -1.433e-5
-0.656, -1.433e-5
-0.655, -1.431e-5
-0.654, -1.431e-5
-0.653, -1.431e-5
-0.652, -1.431e-5
-0.651, -1.432e-5
-0.650, -1.432e-5
-0.649, -1.433e-5
-0.648, -1.434e-5
-0.647, -1.434e-5
-0.646, -1.434e-5
-0.645, -1.434e-5
-0.644, -1.434e-5
-0.643, -1.435e-5
-0.642, -1.434e-5
-0.641, -1.434e-5
-0.640, -1.432e-5
-0.639, -1.432e-5
-0.638, -1.432e-5
-0.637, -1.432e-5
-0.636, -1.433e-5
-0.635, -1.432e-5
-0.634, -1.433e-5
-0.633, -1.433e-5
-0.632, -1.432e-5
-0.631, -1.433e-5
-0.630, -1.432e-5
-0.629, -1.433e-5
-0.628, -1.434e-5
-0.627, -1.436e-5
-0.626, -1.436e-5
-0.625, -1.435e-5
-0.624, -1.437e-5
-0.623, -1.438e-5
-0.622, -1.439e-5
-0.621, -1.440e-5
-0.620, -1.439e-5
-0.619, -1.439e-5
-0.618, -1.438e-5
-0.617, -1.437e-5
-0.616, -1.437e-5
-0.615, -1.437e-5
-0.614, -1.437e-5
-0.613, -1.437e-5
-0.612, -1.437e-5
-0.611, -1.438e-5
-0.610, -1.437e-5
-0.609, -1.437e-5
-0.608, -1.438e-5
-0.607, -1.438e-5
-0.606, -1.440e-5
-0.605, -1.439e-5
-0.604, -1.439e-5
-0.603, -1.439e-5
-0.602, -1.439e-5
-0.601, -1.439e-5
-0.600, -1.438e-5
-0.599, -1.438e-5
-0.598, -1.437e-5
-0.597, -1.437e-5
-0.596, -1.436e-5
-0.595, -1.434e-5
-0.594, -1.433e-5
-0.593, -1.432e-5
-0.592, -1.432e-5
-0.591, -1.433e-5
-0.590, -1.432e-5
-0.589, -1.433e-5
-0.588, -1.433e-5
-0.587, -1.433e-5
-0.586, -1.435e-5
-0.585, -1.433e-5
-0.584, -1.433e-5
-0.583, -1.432e-5
-0.582, -1.431e-5
-0.581, -1.431e-5
-0.580, -1.429e-5
-0.579, -1.428e-5
-0.578, -1.427e-5
-0.577, -1.426e-5
-0.576, -1.426e-5
-0.575, -1.424e-5
-0.574, -1.423e-5
-0.573, -1.423e-5
-0.572, -1.422e-5
-0.571, -1.422e-5
-0.570, -1.421e-5
-0.569, -1.420e-5
-0.568, -1.418e-5
-0.567, -1.417e-5
-0.566, -1.417e-5
-0.565, -1.416e-5
-0.564, -1.415e-5
-0.563, -1.413e-5
-0.562, -1.411e-5
-0.561, -1.410e-5
-0.560, -1.410e-5
-0.559, -1.410e-5
-0.558, -1.409e-5
-0.557, -1.408e-5
-0.556, -1.407e-5
-0.555, -1.405e-5
-0.554, -1.405e-5
-0.553, -1.404e-5
-0.552, -1.403e-5
-0.551, -1.403e-5
-0.550, -1.401e-5
-0.549, -1.399e-5
-0.548, -1.397e-5
-0.547, -1.395e-5
-0.546, -1.394e-5
-0.545, -1.393e-5
-0.544, -1.392e-5
-0.543, -1.389e-5
-0.542, -1.387e-5
-0.541, -1.386e-5
-0.540, -1.383e-5
-0.539, -1.383e-5
-0.538, -1.382e-5
-0.537, -1.381e-5
-0.536, -1.381e-5
-0.535, -1.379e-5
-0.534, -1.377e-5
-0.533, -1.376e-5
-0.532, -1.375e-5
-0.531, -1.375e-5
-0.530, -1.373e-5
-0.529, -1.372e-5
-0.528, -1.370e-5
-0.527, -1.368e-5
-0.526, -1.367e-5
-0.525, -1.365e-5
-0.524, -1.363e-5
-0.523, -1.361e-5
-0.522, -1.359e-5
-0.521, -1.359e-5
-0.520, -1.357e-5
-0.519, -1.355e-5
-0.518, -1.354e-5
-0.517, -1.353e-5
-0.516, -1.352e-5
-0.515, -1.350e-5
-0.514, -1.349e-5
-0.513, -1.347e-5
-0.512, -1.345e-5
-0.511, -1.344e-5
-0.510, -1.343e-5
-0.509, -1.343e-5
-0.508, -1.342e-5
-0.507, -1.341e-5
-0.506, -1.341e-5
-0.505, -1.340e-5
-0.504, -1.339e-5
-0.503, -1.337e-5
-0.502, -1.336e-5
-0.501, -1.334e-5
-0.500, -1.331e-5
-0.499, -1.329e-5
-0.498, -1.326e-5
-0.497, -1.324e-5
-0.496, -1.323e-5
-0.495, -1.321e-5
-0.494, -1.320e-5
-0.493, -1.320e-5
-0.492, -1.319e-5
-0.491, -1.319e-5
-0.490, -1.318e-5
-0.489, -1.317e-5
-0.488, -1.316e-5
-0.487, -1.313e-5
-0.486, -1.313e-5
-0.485, -1.311e-5
-0.484, -1.310e-5
-0.483, -1.308e-5
-0.482, -1.305e-5
-0.481, -1.303e-5
-0.480, -1.301e-5
-0.479, -1.299e-5
-0.478, -1.297e-5
-0.477, -1.295e-5
-0.476, -1.293e-5
-0.475, -1.290e-5
-0.474, -1.290e-5
-0.473, -1.288e-5
-0.472, -1.286e-5
-0.471, -1.286e-5
-0.470, -1.284e-5
-0.469, -1.283e-5
-0.468, -1.281e-5
-0.467, -1.279e-5
-0.466, -1.277e-5
-0.465, -1.274e-5
-0.464, -1.273e-5
-0.463, -1.271e-5
-0.462, -1.269e-5
-0.461, -1.268e-5
-0.460, -1.265e-5
-0.459, -1.264e-5
-0.458, -1.262e-5
-0.457, -1.259e-5
-0.456, -1.257e-5
-0.455, -1.254e-5
-0.454, -1.253e-5
-0.453, -1.252e-5
-0.452, -1.250e-5
-0.451, -1.249e-5
-0.450, -1.247e-5
-0.449, -1.247e-5
-0.448, -1.245e-5
-0.447, -1.243e-5
-0.446, -1.241e-5
-0.445, -1.239e-5
-0.444, -1.237e-5
-0.443, -1.235e-5
-0.442, -1.233e-5
-0.441, -1.231e-5
-0.440, -1.227e-5
-0.439, -1.225e-5
-0.438, -1.222e-5
-0.437, -1.220e-5
-0.436, -1.218e-5
-0.435, -1.214e-5
-0.434, -1.212e-5
-0.433, -1.209e-5
-0.432, -1.207e-5
-0.431, -1.205e-5
-0.430, -1.203e-5
-0.429, -1.203e-5
-0.428, -1.200e-5
-0.427, -1.198e-5
-0.426, -1.196e-5
-0.425, -1.192e-5
-0.424, -1.191e-5
-0.423, -1.188e-5
-0.422, -1.186e-5
-0.421, -1.184e-5
-0.420, -1.180e-5
-0.419, -1.178e-5
-0.418, -1.175e-5
-0.417, -1.173e-5
-0.416, -1.171e-5
-0.415, -1.168e-5
-0.414, -1.166e-5
-0.413, -1.163e-5
-0.412, -1.160e-5
-0.411, -1.158e-5
-0.410, -1.158e-5
-0.409, -1.156e-5
-0.408, -1.153e-5
-0.407, -1.150e-5
-0.406, -1.148e-5
-0.405, -1.145e-5
-0.404, -1.143e-5
-0.403, -1.140e-5
-0.402, -1.137e-5
-0.401, -1.134e-5
-0.400, -1.131e-5
-0.399, -1.128e-5
-0.398, -1.124e-5
-0.397, -1.122e-5
-0.396, -1.119e-5
-0.395, -1.115e-5
-0.394, -1.113e-5
-0.393, -1.109e-5
-0.392, -1.106e-5
-0.391, -1.102e-5
-0.390, -1.098e-5
-0.389, -1.096e-5
-0.388, -1.093e-5
-0.387, -1.090e-5
-0.386, -1.087e-5
-0.385, -1.083e-5
-0.384, -1.079e-5
-0.383, -1.075e-5
-0.382, -1.071e-5
-0.381, -1.068e-5
-0.380, -1.063e-5
-0.379, -1.059e-5
-0.378, -1.055e-5
-0.377, -1.050e-5
-0.376, -1.046e-5
-0.375, -1.041e-5
-0.374, -1.038e-5
-0.373, -1.034e-5
-0.372, -1.029e-5
-0.371, -1.026e-5
-0.370, -1.021e-5
-0.369, -1.018e-5
-0.368, -1.014e-5
-0.367, -1.010e-5
-0.366, -1.007e-5
-0.365, -1.003e-5
-0.364, -9.987e-6
-0.363, -9.943e-6
-0.362, -9.900e-6
-0.361, -9.857e-6
-0.360, -9.809e-6
-0.359, -9.768e-6
-0.358, -9.716e-6
-0.357, -9.670e-6
-0.356, -9.619e-6
-0.355, -9.569e-6
-0.354, -9.531e-6
-0.353, -9.485e-6
-0.352, -9.441e-6
-0.351, -9.398e-6
-0.350, -9.353e-6
-0.349, -9.323e-6
-0.348, -9.268e-6
-0.347, -9.229e-6
-0.346, -9.198e-6
-0.345, -9.147e-6
-0.344, -9.109e-6
-0.343, -9.059e-6
-0.342, -9.011e-6
-0.341, -8.967e-6
-0.340, -8.911e-6
-0.339, -8.870e-6
-0.338, -8.821e-6
-0.337, -8.773e-6
-0.336, -8.726e-6
-0.335, -8.667e-6
-0.334, -8.625e-6
-0.333, -8.572e-6
-0.332, -8.522e-6
-0.331, -8.489e-6
-0.330, -8.439e-6
-0.329, -8.403e-6
-0.328, -8.358e-6
-0.327, -8.309e-6
-0.326, -8.268e-6
-0.325, -8.216e-6
-0.324, -8.176e-6
-0.323, -8.130e-6
-0.322, -8.083e-6
-0.321, -8.032e-6
-0.320, -7.983e-6
-0.319, -7.932e-6
-0.318, -7.879e-6
-0.317, -7.833e-6
-0.316, -7.790e-6
-0.315, -7.740e-6
-0.314, -7.705e-6
-0.313, -7.656e-6
-0.312, -7.613e-6
-0.311, -7.572e-6
-0.310, -7.525e-6
-0.309, -7.493e-6
-0.308, -7.443e-6
-0.307, -7.393e-6
-0.306, -7.359e-6
-0.305, -7.306e-6
-0.304, -7.268e-6
-0.303, -7.211e-6
-0.302, -7.164e-6
-0.301, -7.122e-6
-0.300, -7.061e-6
-0.299, -7.025e-6
-0.298, -6.974e-6
-0.297, -6.925e-6
-0.296, -6.886e-6
-0.295, -6.837e-6
-0.294, -6.805e-6
-0.293, -6.761e-6
-0.292, -6.714e-6
-0.291, -6.675e-6
-0.290, -6.627e-6
-0.289, -6.589e-6
-0.288, -6.543e-6
-0.287, -6.494e-6
-0.286, -6.455e-6
-0.285, -6.405e-6
-0.284, -6.361e-6
-0.283, -6.311e-6
-0.282, -6.260e-6
-0.281, -6.217e-6
-0.280, -6.169e-6
-0.279, -6.124e-6
-0.278, -6.079e-6
-0.277, -6.039e-6
-0.276, -5.997e-6
-0.275, -5.953e-6
-0.274, -5.919e-6
-0.273, -5.880e-6
-0.272, -5.840e-6
-0.271, -5.805e-6
-0.270, -5.757e-6
-0.269, -5.729e-6
-0.268, -5.683e-6
-0.267, -5.637e-6
-0.266, -5.601e-6
-0.265, -5.553e-6
-0.264, -5.513e-6
-0.263, -5.468e-6
-0.262, -5.422e-6
-0.261, -5.391e-6
-0.260, -5.342e-6
-0.259, -5.309e-6
-0.258, -5.266e-6
-0.257, -5.224e-6
-0.256, -5.198e-6
-0.255, -5.144e-6
-0.254, -5.112e-6
-0.253, -5.075e-6
-0.252, -5.032e-6
-0.251, -4.997e-6
-0.250, -4.953e-6
-0.249, -4.919e-6
-0.248, -4.878e-6
-0.247, -4.841e-6
-0.246, -4.814e-6
-0.245, -4.773e-6
-0.244, -4.743e-6
-0.243, -4.709e-6
-0.242, -4.668e-6
-0.241, -4.633e-6
-0.240, -4.585e-6
-0.239, -4.556e-6
-0.238, -4.515e-6
-0.237, -4.482e-6
-0.236, -4.447e-6
-0.235, -4.401e-6
-0.234, -4.371e-6
-0.233, -4.334e-6
-0.232, -4.297e-6
-0.231, -4.263e-6
-0.230, -4.226e-6
-0.229, -4.198e-6
-0.228, -4.157e-6
-0.227, -4.124e-6
-0.226, -4.098e-6
-0.225, -4.063e-6
-0.224, -4.042e-6
-0.223, -4.005e-6
-0.222, -3.970e-6
-0.221, -3.944e-6
-0.220, -3.903e-6
-0.219, -3.877e-6
-0.218, -3.849e-6
-0.217, -3.813e-6
-0.216, -3.785e-6
-0.215, -3.746e-6
-0.214, -3.720e-6
-0.213, -3.686e-6
-0.212, -3.648e-6
-0.211, -3.625e-6
-0.210, -3.583e-6
-0.209, -3.556e-6
-0.208, -3.520e-6
-0.207, -3.487e-6
-0.206, -3.463e-6
-0.205, -3.444e-6
-0.204, -3.415e-6
-0.203, -3.380e-6
-0.202, -3.352e-6
-0.201, -3.325e-6
-0.200, -3.294e-6
-0.199, -3.271e-6
-0.198, -3.241e-6
-0.197, -3.213e-6
-0.196, -3.184e-6
-0.195, -3.140e-6
-0.194, -3.117e-6
-0.193, -3.082e-6
-0.192, -3.059e-6
-0.191, -3.028e-6
-0.190, -2.989e-6
-0.189, -2.967e-6
-0.188, -2.931e-6
-0.187, -2.903e-6
-0.186, -2.886e-6
-0.185, -2.857e-6
-0.184, -2.839e-6
-0.183, -2.809e-6
-0.182, -2.790e-6
-0.181, -2.776e-6
-0.180, -2.741e-6
-0.179, -2.716e-6
-0.178, -2.695e-6
-0.177, -2.667e-6
-0.176, -2.645e-6
-0.175, -2.612e-6
-0.174, -2.589e-6
-0.173, -2.561e-6
-0.172, -2.533e-6
-0.171, -2.512e-6
-0.170, -2.484e-6
-0.169, -2.463e-6
-0.168, -2.435e-6
-0.167, -2.415e-6
-0.166, -2.400e-6
-0.165, -2.371e-6
-0.164, -2.356e-6
-0.163, -2.333e-6
-0.162, -2.315e-6
-0.161, -2.299e-6
-0.160, -2.276e-6
-0.159, -2.257e-6
-0.158, -2.234e-6
-0.157, -2.209e-6
-0.156, -2.189e-6
-0.155, -2.161e-6
-0.154, -2.145e-6
-0.153, -2.114e-6
-0.152, -2.092e-6
-0.151, -2.073e-6
-0.150, -2.048e-6
-0.149, -2.032e-6
-0.148, -2.005e-6
-0.147, -1.985e-6
-0.146, -1.969e-6
-0.145, -1.947e-6
-0.144, -1.936e-6
-0.143, -1.916e-6
-0.142, -1.895e-6
-0.141, -1.889e-6
-0.140, -1.859e-6
-0.139, -1.841e-6
-0.138, -1.822e-6
-0.137, -1.801e-6
-0.136, -1.784e-6
-0.135, -1.754e-6
-0.134, -1.736e-6
-0.133, -1.712e-6
-0.132, -1.691e-6
-0.131, -1.673e-6
-0.130, -1.652e-6
-0.129, -1.637e-6
-0.128, -1.608e-6
-0.127, -1.591e-6
-0.126, -1.579e-6
-0.125, -1.555e-6
-0.124, -1.541e-6
-0.123, -1.517e-6
-0.122, -1.497e-6
-0.121, -1.484e-6
-0.120, -1.456e-6
-0.119, -1.439e-6
-0.118, -1.417e-6
-0.117, -1.401e-6
-0.116, -1.384e-6
-0.115, -1.363e-6
-0.114, -1.348e-6
-0.113, -1.326e-6
-0.112, -1.305e-6
-0.111, -1.292e-6
-0.110, -1.264e-6
-0.109, -1.255e-6
-0.108, -1.229e-6
-0.107, -1.206e-6
-0.106, -1.193e-6
-0.105, -1.166e-6
-0.104, -1.152e-6
-0.103, -1.122e-6
-0.102, -1.103e-6
-0.101, -1.094e-6
-0.100, -1.070e-6
-0.099, -1.056e-6
-0.098, -1.037e-6
-0.097, -1.017e-6
-0.096, -1.002e-6
-0.095, -9.778e-7
-0.094, -9.676e-7
-0.093, -9.436e-7
-0.092, -9.248e-7
-0.091, -9.044e-7
-0.090, -8.876e-7
-0.089, -8.655e-7
-0.088, -8.448e-7
-0.087, -8.249e-7
-0.086, -8.118e-7
-0.085, -7.904e-7
-0.084, -7.689e-7
-0.083, -7.506e-7
-0.082, -7.298e-7
-0.081, -7.164e-7
-0.080, -6.934e-7
-0.079, -6.806e-7
-0.078, -6.565e-7
-0.077, -6.350e-7
-0.076, -6.196e-7
-0.075, -5.966e-7
-0.074, -5.856e-7
-0.073, -5.648e-7
-0.072, -5.481e-7
-0.071, -5.277e-7
-0.070, -5.041e-7
-0.069, -4.904e-7
-0.068, -4.663e-7
-0.067, -4.477e-7
-0.066, -4.336e-7
-0.065, -4.057e-7
-0.064, -3.981e-7
-0.063, -3.707e-7
-0.062, -3.514e-7
-0.061, -3.443e-7
-0.060, -3.190e-7
-0.059, -3.041e-7
-0.058, -2.877e-7
-0.057, -2.687e-7
-0.056, -2.571e-7
-0.055, -2.335e-7
-0.054, -2.217e-7
-0.053, -2.002e-7
-0.052, -1.819e-7
-0.051, -1.663e-7
-0.050, -1.419e-7
-0.049, -1.280e-7
-0.048, -1.067e-7
-0.047, -8.613e-8
-0.046, -6.946e-8
-0.045, -4.491e-8
-0.044, -3.000e-8
-0.043, -7.582e-9
-0.042, 7.426e-9
-0.041, 1.912e-8
-0.040, 4.046e-8
-0.039, 4.602e-8
-0.038, 7.048e-8
-0.037, 8.675e-8
-0.036, 1.044e-7
-0.035, 1.238e-7
-0.034, 1.299e-7
-0.033, 1.502e-7
-0.032, 1.660e-7
-0.031, 1.811e-7
-0.030, 2.082e-7
-0.029, 2.190e-7
-0.028, 2.413e-7
-0.027, 2.571e-7
-0.026, 2.757e-7
-0.025, 2.937e-7
-0.024, 3.033e-7
-0.023, 3.261e-7
-0.022, 3.420e-7
-0.021, 3.505e-7
-0.020, 3.729e-7
-0.019, 3.813e-7
-0.018, 3.962e-7
-0.017, 4.150e-7
-0.016, 4.239e-7
-0.015, 4.463e-7
-0.014, 4.595e-7
-0.013, 4.728e-7
-0.012, 4.935e-7
-0.011, 5.044e-7
-0.010, 5.227e-7
-0.009, 5.338e-7
-0.008, 5.530e-7
-0.007, 5.725e-7
-0.006, 5.835e-7
-0.005, 6.004e-7
-0.004, 6.124e-7
-0.003, 6.290e-7
-0.002, 6.434e-7
-0.001, 6.541e-7
-0.000, 6.553e-7
0.001, 6.766e-7
0.002, 6.962e-7
0.003, 7.137e-7
0.004, 7.258e-7
0.005, 7.474e-7
0.006, 7.511e-7
0.007, 7.721e-7
0.008, 7.878e-7
0.009, 7.993e-7
0.010, 8.185e-7
0.011, 8.248e-7
0.012, 8.422e-7
0.013, 8.531e-7
0.014, 8.649e-7
0.015, 8.843e-7
0.016, 8.907e-7
0.017, 9.094e-7
0.018, 9.249e-7
0.019, 9.300e-7
0.020, 9.526e-7
0.021, 9.622e-7
0.022, 9.779e-7
0.023, 9.892e-7
0.024, 9.970e-7
0.025, 1.023e-6
0.026, 1.029e-6
0.027, 1.042e-6
0.028, 1.056e-6
0.029, 1.063e-6
0.030, 1.080e-6
0.031, 1.086e-6
0.032, 1.097e-6
0.033, 1.109e-6
0.034, 1.117e-6
0.035, 1.132e-6
0.036, 1.138e-6
0.037, 1.152e-6
0.038, 1.157e-6
0.039, 1.171e-6
0.040, 1.189e-6
0.041, 1.193e-6
0.042, 1.210e-6
0.043, 1.218e-6
0.044, 1.228e-6
0.045, 1.243e-6
0.046, 1.246e-6
0.047, 1.261e-6
0.048, 1.272e-6
0.049, 1.278e-6
0.050, 1.294e-6
0.051, 1.294e-6
0.052, 1.312e-6
0.053, 1.323e-6
0.054, 1.326e-6
0.055, 1.344e-6
0.056, 1.348e-6
0.057, 1.360e-6
0.058, 1.369e-6
0.059, 1.373e-6
0.060, 1.392e-6
0.061, 1.394e-6
0.062, 1.408e-6
0.063, 1.420e-6
0.064, 1.419e-6
0.065, 1.436e-6
0.066, 1.438e-6
0.067, 1.448e-6
0.068, 1.457e-6
0.069, 1.463e-6
0.070, 1.474e-6
0.071, 1.477e-6
0.072, 1.488e-6
0.073, 1.498e-6
0.074, 1.503e-6
0.075, 1.518e-6
0.076, 1.523e-6
0.077, 1.542e-6
0.078, 1.545e-6
0.079, 1.551e-6
0.080, 1.563e-6
0.081, 1.564e-6
0.082, 1.576e-6
0.083, 1.580e-6
0.084, 1.585e-6
0.085, 1.598e-6
0.086, 1.595e-6
0.087, 1.607e-6
0.088, 1.614e-6
0.089, 1.616e-6
0.090, 1.630e-6
0.091, 1.633e-6
0.092, 1.647e-6
0.093, 1.653e-6
0.094, 1.658e-6
0.095, 1.675e-6
0.096, 1.674e-6
0.097, 1.690e-6
0.098, 1.696e-6
0.099, 1.698e-6
0.100, 1.713e-6
0.101, 1.711e-6
0.102, 1.725e-6
0.103, 1.730e-6
0.104, 1.733e-6
0.105, 1.744e-6
0.106, 1.742e-6
0.107, 1.750e-6
0.108, 1.756e-6
0.109, 1.762e-6
0.110, 1.772e-6
0.111, 1.774e-6
0.112, 1.784e-6
0.113, 1.791e-6
0.114, 1.792e-6
0.115, 1.798e-6
0.116, 1.802e-6
0.117, 1.814e-6
0.118, 1.816e-6
0.119, 1.822e-6
0.120, 1.834e-6
0.121, 1.832e-6
0.122, 1.840e-6
0.123, 1.844e-6
0.124, 1.845e-6
0.125, 1.858e-6
0.126, 1.854e-6
0.127, 1.860e-6
0.128, 1.871e-6
0.129, 1.870e-6
0.130, 1.882e-6
0.131, 1.878e-6
0.132, 1.892e-6
0.133, 1.896e-6
0.134, 1.897e-6
0.135, 1.907e-6
0.136, 1.904e-6
0.137, 1.916e-6
0.138, 1.919e-6
0.139, 1.917e-6
0.140, 1.928e-6
0.141, 1.922e-6
0.142, 1.931e-6
0.143, 1.938e-6
0.144, 1.940e-6
0.145, 1.953e-6
0.146, 1.949e-6
0.147, 1.957e-6
0.148, 1.959e-6
0.149, 1.962e-6
0.150, 1.971e-6
0.151, 1.967e-6
0.152, 1.974e-6
0.153, 1.978e-6
0.154, 1.982e-6
0.155, 1.990e-6
0.156, 1.989e-6
0.157, 1.999e-6
0.158, 1.999e-6
0.159, 1.999e-6
0.160, 2.008e-6
0.161, 2.009e-6
0.162, 2.018e-6
0.163, 2.018e-6
0.164, 2.022e-6
0.165, 2.031e-6
0.166, 2.022e-6
0.167, 2.036e-6
0.168, 2.040e-6
0.169, 2.045e-6
0.170, 2.054e-6
0.171, 2.049e-6
0.172, 2.058e-6
0.173, 2.059e-6
0.174, 2.058e-6
0.175, 2.066e-6
0.176, 2.062e-6
0.177, 2.069e-6
0.178, 2.071e-6
0.179, 2.077e-6
0.180, 2.082e-6
0.181, 2.083e-6
0.182, 2.088e-6
0.183, 2.091e-6
0.184, 2.094e-6
0.185, 2.103e-6
0.186, 2.099e-6
0.187, 2.106e-6
0.188, 2.109e-6
0.189, 2.109e-6
0.190, 2.118e-6
0.191, 2.117e-6
0.192, 2.116e-6
0.193, 2.124e-6
0.194, 2.124e-6
0.195, 2.136e-6
0.196, 2.137e-6
0.197, 2.147e-6
0.198, 2.150e-6
0.199, 2.153e-6
0.200, 2.161e-6
0.201, 2.163e-6
0.202, 2.172e-6
0.203, 2.175e-6
0.204, 2.176e-6
0.205, 2.174e-6
0.206, 2.181e-6
0.207, 2.187e-6
0.208, 2.193e-6
0.209, 2.196e-6
0.210, 2.207e-6
0.211, 2.204e-6
0.212, 2.219e-6
0.213, 2.220e-6
0.214, 2.221e-6
0.215, 2.233e-6
0.216, 2.234e-6
0.217, 2.246e-6
0.218, 2.249e-6
0.219, 2.255e-6
0.220, 2.273e-6
0.221, 2.271e-6
0.222, 2.283e-6
0.223, 2.289e-6
0.224, 2.295e-6
0.225, 2.311e-6
0.226, 2.312e-6
0.227, 2.324e-6
0.228, 2.332e-6
0.229, 2.339e-6
0.230, 2.356e-6
0.231, 2.356e-6
0.232, 2.372e-6
0.233, 2.379e-6
0.234, 2.390e-6
0.235, 2.404e-6
0.236, 2.410e-6
0.237, 2.426e-6
0.238, 2.437e-6
0.239, 2.443e-6
0.240, 2.459e-6
0.241, 2.470e-6
0.242, 2.485e-6
0.243, 2.487e-6
0.244, 2.508e-6
0.245, 2.530e-6
0.246, 2.536e-6
0.247, 2.560e-6
0.248, 2.572e-6
0.249, 2.587e-6
0.250, 2.608e-6
0.251, 2.622e-6
0.252, 2.646e-6
0.253, 2.662e-6
0.254, 2.681e-6
0.255, 2.704e-6
0.256, 2.710e-6
0.257, 2.744e-6
0.258, 2.760e-6
0.259, 2.779e-6
0.260, 2.808e-6
0.261, 2.823e-6
0.262, 2.854e-6
0.263, 2.876e-6
0.264, 2.903e-6
0.265, 2.938e-6
0.266, 2.957e-6
0.267, 2.996e-6
0.268, 3.023e-6
0.269, 3.047e-6
0.270, 3.084e-6
0.271, 3.110e-6
0.272, 3.159e-6
0.273, 3.191e-6
0.274, 3.227e-6
0.275, 3.267e-6
0.276, 3.300e-6
0.277, 3.349e-6
0.278, 3.381e-6
0.279, 3.430e-6
0.280, 3.473e-6
0.281, 3.527e-6
0.282, 3.584e-6
0.283, 3.621e-6
0.284, 3.680e-6
0.285, 3.744e-6
0.286, 3.785e-6
0.287, 3.861e-6
0.288, 3.913e-6
0.289, 3.983e-6
0.290, 4.048e-6
0.291, 4.109e-6
0.292, 4.197e-6
0.293, 4.256e-6
0.294, 4.319e-6
0.295, 4.401e-6
0.296, 4.475e-6
0.297, 4.573e-6
0.298, 4.652e-6
0.299, 4.740e-6
0.300, 4.843e-6
0.301, 4.926e-6
0.302, 5.040e-6
0.303, 5.133e-6
0.304, 5.248e-6
0.305, 5.368e-6
0.306, 5.468e-6
0.307, 5.620e-6
0.308, 5.731e-6
0.309, 5.862e-6
0.310, 5.984e-6
0.311, 6.113e-6
0.312, 6.279e-6
0.313, 6.421e-6
0.314, 6.580e-6
0.315, 6.731e-6
0.316, 6.886e-6
0.317, 7.081e-6
0.318, 7.240e-6
0.319, 7.441e-6
0.320, 7.583e-6
0.321, 7.812e-6
0.322, 8.034e-6
0.323, 8.216e-6
0.324, 8.456e-6
0.325, 8.685e-6
0.326, 8.912e-6
0.327, 9.187e-6
0.328, 9.401e-6
0.329, 9.711e-6
0.330, 9.977e-6
0.331, 1.023e-5
0.332, 1.056e-5
0.333, 1.090e-5
0.334, 1.120e-5
0.335, 1.152e-5
0.336, 1.180e-5
0.337, 1.220e-5
0.338, 1.251e-5
0.339, 1.292e-5
0.340, 1.330e-5
0.341, 1.367e-5
0.342, 1.415e-5
0.343, 1.452e-5
0.344, 1.502e-5
0.345, 1.543e-5
0.346, 1.584e-5
0.347, 1.640e-5
0.348, 1.688e-5
0.349, 1.745e-5
0.350, 1.797e-5
0.351, 1.852e-5
0.352, 1.910e-5
0.353, 1.966e-5
0.354, 2.035e-5
0.355, 2.092e-5
0.356, 2.156e-5
0.357, 2.234e-5
0.358, 2.291e-5
0.359, 2.371e-5
0.360, 2.438e-5
0.361, 2.519e-5
0.362, 2.606e-5
0.363, 2.669e-5
0.364, 2.766e-5
0.365, 2.842e-5
0.366, 2.933e-5
0.367, 3.028e-5
0.368, 3.100e-5
0.369, 3.217e-5
0.370, 3.312e-5
0.371, 3.391e-5
0.372, 3.508e-5
0.373, 3.605e-5
0.374, 3.726e-5
0.375, 3.833e-5
0.376, 3.934e-5
0.377, 4.076e-5
0.378, 4.170e-5
0.379, 4.311e-5
0.380, 4.421e-5
0.381, 4.546e-5
0.382, 4.686e-5
0.383, 4.798e-5
0.384, 4.979e-5
0.385, 5.086e-5
0.386, 5.228e-5
0.387, 5.373e-5
0.388, 5.487e-5
0.389, 5.669e-5
0.390, 5.791e-5
0.391, 5.936e-5
0.392, 6.098e-5
0.393, 6.225e-5
0.394, 6.404e-5
0.395, 6.539e-5
0.396, 6.703e-5
0.397, 6.823e-5
0.398, 6.985e-5
0.399, 7.173e-5
0.400, 7.300e-5
0.401, 7.474e-5
0.402, 7.646e-5
0.403, 7.758e-5
0.404, 7.964e-5
0.405, 8.085e-5
0.406, 8.256e-5
0.407, 8.424e-5
0.408, 8.531e-5
0.409, 8.697e-5
0.410, 8.692e-5
0.411, 8.942e-5
0.412, 9.116e-5
0.413, 9.216e-5
0.414, 9.429e-5
0.415, 9.527e-5
0.416, 9.674e-5
0.417, 9.842e-5
0.418, 9.939e-5
0.419, 1.011e-4
0.420, 1.020e-4
0.421, 1.033e-4
0.422, 1.045e-4
0.423, 1.053e-4
0.424, 1.069e-4
0.425, 1.078e-4
0.426, 1.089e-4
0.427, 1.101e-4
0.428, 1.107e-4
0.429, 1.119e-4
0.430, 1.124e-4
0.431, 1.134e-4
0.432, 1.141e-4
0.433, 1.147e-4
0.434, 1.158e-4
0.435, 1.164e-4
0.436, 1.171e-4
0.437, 1.176e-4
0.438, 1.178e-4
0.439, 1.186e-4
0.440, 1.187e-4
0.441, 1.192e-4
0.442, 1.196e-4
0.443, 1.196e-4
0.444, 1.202e-4
0.445, 1.201e-4
0.446, 1.205e-4
0.447, 1.207e-4
0.448, 1.202e-4
0.449, 1.207e-4
0.450, 1.207e-4
0.451, 1.206e-4
0.452, 1.207e-4
0.453, 1.203e-4
0.454, 1.205e-4
0.455, 1.202e-4
0.456, 1.200e-4
0.457, 1.200e-4
0.458, 1.196e-4
0.459, 1.196e-4
0.460, 1.192e-4
0.461, 1.190e-4
0.462, 1.189e-4
0.463, 1.183e-4
0.464, 1.182e-4
0.465, 1.178e-4
0.466, 1.174e-4
0.467, 1.171e-4
0.468, 1.165e-4
0.469, 1.163e-4
0.470, 1.157e-4
0.471, 1.153e-4
0.472, 1.149e-4
0.473, 1.144e-4
0.474, 1.139e-4
0.475, 1.133e-4
0.476, 1.129e-4
0.477, 1.125e-4
0.478, 1.120e-4
0.479, 1.117e-4
0.480, 1.111e-4
0.481, 1.107e-4
0.482, 1.103e-4
0.483, 1.097e-4
0.484, 1.093e-4
0.485, 1.088e-4
0.486, 1.084e-4
0.487, 1.079e-4
0.488, 1.073e-4
0.489, 1.069e-4
0.490, 1.063e-4
0.491, 1.058e-4
0.492, 1.053e-4
0.493, 1.048e-4
0.494, 1.044e-4
0.495, 1.039e-4
0.496, 1.034e-4
0.497, 1.031e-4
0.498, 1.026e-4
0.499, 1.021e-4
0.500, 1.016e-4
0.501, 1.012e-4
0.502, 1.008e-4
0.503, 1.004e-4
0.504, 1.000e-4
0.505, 9.953e-5
0.506, 9.905e-5
0.507, 9.858e-5
0.508, 9.813e-5
0.509, 9.781e-5
0.510, 9.744e-5
0.511, 9.704e-5
0.512, 9.669e-5
0.513, 9.622e-5
0.514, 9.586e-5
0.515, 9.549e-5
0.516, 9.518e-5
0.517, 9.491e-5
0.518, 9.456e-5
0.519, 9.429e-5
0.520, 9.398e-5
0.521, 9.367e-5
0.522, 9.334e-5
0.523, 9.295e-5
0.524, 9.264e-5
0.525, 9.226e-5
0.526, 9.196e-5
0.527, 9.167e-5
0.528, 9.135e-5
0.529, 9.105e-5
0.530, 9.071e-5
0.531, 9.044e-5
0.532, 9.024e-5
0.533, 8.999e-5
0.534, 8.976e-5
0.535, 8.947e-5
0.536, 8.919e-5
0.537, 8.897e-5
0.538, 8.874e-5
0.539, 8.854e-5
0.540, 8.835e-5
0.541, 8.817e-5
0.542, 8.801e-5
0.543, 8.780e-5
0.544, 8.761e-5
0.545, 8.739e-5
0.546, 8.716e-5
0.547, 8.697e-5
0.548, 8.674e-5
0.549, 8.651e-5
0.550, 8.625e-5
0.551, 8.599e-5
0.552, 8.580e-5
0.553, 8.561e-5
0.554, 8.547e-5
0.555, 8.534e-5
0.556, 8.519e-5
0.557, 8.503e-5
0.558, 8.487e-5
0.559, 8.478e-5
0.560, 8.468e-5
0.561, 8.456e-5
0.562, 8.440e-5
0.563, 8.421e-5
0.564, 8.404e-5
0.565, 8.391e-5
0.566, 8.377e-5
0.567, 8.365e-5
0.568, 8.347e-5
0.569, 8.330e-5
0.570, 8.313e-5
0.571, 8.296e-5
0.572, 8.284e-5
0.573, 8.271e-5
0.574, 8.261e-5
0.575, 8.252e-5
0.576, 8.242e-5
0.577, 8.235e-5
0.578, 8.223e-5
0.579, 8.214e-5
0.580, 8.207e-5
0.581, 8.200e-5
0.582, 8.192e-5
0.583, 8.180e-5
0.584, 8.166e-5
0.585, 8.154e-5
0.586, 8.143e-5
0.587, 8.136e-5
0.588, 8.129e-5
0.589, 8.123e-5
0.590, 8.112e-5
0.591, 8.101e-5
0.592, 8.094e-5
0.593, 8.085e-5
0.594, 8.080e-5
0.595, 8.074e-5
0.596, 8.063e-5
0.597, 8.055e-5
0.598, 8.047e-5
0.599, 8.043e-5
0.600, 8.040e-5
0.601, 8.033e-5
0.602, 8.027e-5
0.603, 8.017e-5
0.604, 8.007e-5
0.605, 7.997e-5
0.606, 7.987e-5
0.607, 7.981e-5
0.608, 7.974e-5
0.609, 7.966e-5
0.610, 7.958e-5
0.611, 7.952e-5
0.612, 7.946e-5
0.613, 7.936e-5
0.614, 7.925e-5
0.615, 7.916e-5
0.616, 7.907e-5
0.617, 7.905e-5
0.618, 7.900e-5
0.619, 7.894e-5
0.620, 7.890e-5
0.621, 7.883e-5
0.622, 7.880e-5
0.623, 7.876e-5
0.624, 7.872e-5
0.625, 7.868e-5
0.626, 7.866e-5
0.627, 7.862e-5
0.628, 7.855e-5
0.629, 7.847e-5
0.630, 7.836e-5
0.631, 7.826e-5
0.632, 7.820e-5
0.633, 7.813e-5
0.634, 7.805e-5
0.635, 7.797e-5
0.636, 7.788e-5
0.637, 7.785e-5
0.638, 7.785e-5
0.639, 7.788e-5
0.640, 7.792e-5
0.641, 7.790e-5
0.642, 7.789e-5
0.643, 7.784e-5
0.644, 7.778e-5
0.645, 7.770e-5
0.646, 7.761e-5
0.647, 7.754e-5
0.648, 7.744e-5
0.649, 7.733e-5
0.650, 7.720e-5
0.651, 7.706e-5
0.652, 7.698e-5
0.653, 7.693e-5
0.654, 7.692e-5
0.655, 7.693e-5
0.656, 7.689e-5
0.657, 7.688e-5
0.658, 7.687e-5
0.659, 7.687e-5
0.660, 7.687e-5
0.661, 7.682e-5
0.662, 7.677e-5
0.663, 7.669e-5
0.664, 7.660e-5
0.665, 7.653e-5
0.666, 7.644e-5
0.667, 7.636e-5
0.668, 7.630e-5
0.669, 7.629e-5
0.670, 7.629e-5
0.671, 7.629e-5
0.672, 7.631e-5
0.673, 7.632e-5
0.674, 7.635e-5
0.675, 7.642e-5
0.676, 7.643e-5
0.677, 7.639e-5
0.678, 7.627e-5
0.679, 7.615e-5
0.680, 7.608e-5
0.681, 7.603e-5
0.682, 7.600e-5
0.683, 7.594e-5
0.684, 7.586e-5
0.685, 7.577e-5
0.686, 7.568e-5
0.687, 7.568e-5
0.688, 7.569e-5
0.689, 7.578e-5
0.690, 7.583e-5
0.691, 7.585e-5
0.692, 7.587e-5
0.693, 7.589e-5
0.694, 7.592e-5
0.695, 7.593e-5
0.696, 7.589e-5
0.697, 7.579e-5
0.698, 7.563e-5
0.699, 7.549e-5
0.700, 7.542e-5
0.701, 7.538e-5
0.702, 7.535e-5
0.703, 7.529e-5
0.704, 7.524e-5
0.705, 7.525e-5
0.706, 7.526e-5
0.707, 7.528e-5
0.708, 7.526e-5
0.709, 7.527e-5
0.710, 7.529e-5
0.711, 7.530e-5
0.712, 7.531e-5
0.713, 7.524e-5
0.714, 7.516e-5
0.715, 7.509e-5
0.716, 7.503e-5
0.717, 7.500e-5
0.718, 7.494e-5
0.719, 7.487e-5
0.720, 7.480e-5
0.721, 7.475e-5
0.722, 7.473e-5
0.723, 7.472e-5
0.724, 7.473e-5
0.725, 7.471e-5
0.726, 7.469e-5
0.727, 7.471e-5
0.728, 7.469e-5
0.729, 7.467e-5
0.730, 7.460e-5
0.731, 7.451e-5
0.732, 7.445e-5
0.733, 7.438e-5
0.734, 7.433e-5
0.735, 7.429e-5
0.736, 7.421e-5
0.737, 7.417e-5
0.738, 7.412e-5
0.739, 7.407e-5
0.740, 7.402e-5
0.741, 7.393e-5
0.742, 7.392e-5
0.743, 7.390e-5
0.744, 7.389e-5
0.745, 7.388e-5
0.746, 7.385e-5
0.747, 7.385e-5
0.748, 7.387e-5
0.749, 7.388e-5
0.750, 7.386e-5
0.751, 7.382e-5
0.752, 7.378e-5
0.753, 7.371e-5
0.754, 7.362e-5
0.755, 7.353e-5
0.756, 7.346e-5
0.757, 7.343e-5
0.758, 7.337e-5
0.759, 7.333e-5
0.760, 7.327e-5
0.761, 7.322e-5
0.762, 7.323e-5
0.763, 7.323e-5
0.764, 7.326e-5
0.765, 7.325e-5
0.766, 7.322e-5
0.767, 7.321e-5
0.768, 7.320e-5
0.769, 7.322e-5
0.770, 7.322e-5
0.771, 7.314e-5
0.772, 7.308e-5
0.773, 7.296e-5
0.774, 7.289e-5
0.775, 7.285e-5
0.776, 7.275e-5
0.777, 7.268e-5
0.778, 7.255e-5
0.779, 7.243e-5
0.780, 7.237e-5
0.781, 7.234e-5
0.782, 7.236e-5
0.783, 7.234e-5
0.784, 7.233e-5
0.785, 7.237e-5
0.786, 7.237e-5
0.787, 7.237e-5
0.788, 7.236e-5
0.789, 7.230e-5
0.790, 7.222e-5
0.791, 7.214e-5
0.792, 7.207e-5
0.793, 7.201e-5
0.794, 7.194e-5
0.795, 7.190e-5
0.796, 7.184e-5
0.797, 7.181e-5
0.798, 7.177e-5
0.799, 7.173e-5
0.800, 7.171e-5
0.801, 7.168e-5
0.802, 7.170e-5
0.803, 7.170e-5
0.804, 7.171e-5
0.805, 7.169e-5
0.806, 7.164e-5
0.807, 7.164e-5
0.808, 7.163e-5
0.809, 7.164e-5
0.810, 7.163e-5
0.811, 7.156e-5
0.812, 7.148e-5
0.813, 7.140e-5
0.814, 7.133e-5
0.815, 7.131e-5
0.816, 7.130e-5
0.817, 7.130e-5
0.818, 7.124e-5
0.819, 7.118e-5
0.820, 7.123e-5
0.821, 7.123e-5
0.822, 7.128e-5
0.823, 7.129e-5
0.824, 7.127e-5
0.825, 7.126e-5
0.826, 7.122e-5
0.827, 7.121e-5
0.828, 7.120e-5
0.829, 7.122e-5
0.830, 7.124e-5
0.831, 7.124e-5
0.832, 7.122e-5
0.833, 7.118e-5
0.834, 7.112e-5
0.835, 7.108e-5
0.836, 7.106e-5
0.837, 7.107e-5
0.838, 7.106e-5
0.839, 7.103e-5
0.840, 7.099e-5
0.841, 7.097e-5
0.842, 7.098e-5
0.843, 7.100e-5
0.844, 7.106e-5
0.845, 7.109e-5
0.846, 7.108e-5
0.847, 7.105e-5
0.848, 7.099e-5
0.849, 7.095e-5
0.850, 7.095e-5
0.851, 7.092e-5
0.852, 7.092e-5
0.853, 7.090e-5
0.854, 7.086e-5
0.855, 7.082e-5
0.856, 7.080e-5
0.857, 7.082e-5
0.858, 7.084e-5
0.859, 7.088e-5
0.860, 7.090e-5
0.861, 7.089e-5
0.862, 7.091e-5
0.863, 7.090e-5
0.864, 7.094e-5
0.865, 7.102e-5
0.866, 7.105e-5
0.867, 7.107e-5
0.868, 7.102e-5
0.869, 7.095e-5
0.870, 7.087e-5
0.871, 7.081e-5
0.872, 7.082e-5
0.873, 7.082e-5
0.874, 7.081e-5
0.875, 7.080e-5
0.876, 7.077e-5
0.877, 7.079e-5
0.878, 7.082e-5
0.879, 7.089e-5
0.880, 7.095e-5
0.881, 7.098e-5
0.882, 7.101e-5
0.883, 7.097e-5
0.884, 7.097e-5
0.885, 7.096e-5
0.886, 7.094e-5
0.887, 7.097e-5
0.888, 7.099e-5
0.889, 7.101e-5
0.890, 7.105e-5
0.891, 7.105e-5
0.892, 7.111e-5
0.893, 7.118e-5
0.894, 7.123e-5
0.895, 7.127e-5
0.896, 7.129e-5
0.897, 7.127e-5
0.898, 7.127e-5
0.899, 7.131e-5
0.900, 7.079e-5
0.899, 7.045e-5
0.898, 7.037e-5
0.897, 7.029e-5
0.896, 7.022e-5
0.895, 7.016e-5
0.894, 7.009e-5
0.893, 7.007e-5
0.892, 7.002e-5
0.891, 6.996e-5
0.890, 6.987e-5
0.889, 6.976e-5
0.888, 6.973e-5
0.887, 6.973e-5
0.886, 6.974e-5
0.885, 6.975e-5
0.884, 6.975e-5
0.883, 6.975e-5
0.882, 6.970e-5
0.881, 6.964e-5
0.880, 6.957e-5
0.879, 6.955e-5
0.878, 6.958e-5
0.877, 6.961e-5
0.876, 6.963e-5
0.875, 6.965e-5
0.874, 6.965e-5
0.873, 6.965e-5
0.872, 6.965e-5
0.871, 6.970e-5
0.870, 6.971e-5
0.869, 6.969e-5
0.868, 6.965e-5
0.867, 6.958e-5
0.866, 6.952e-5
0.865, 6.948e-5
0.864, 6.944e-5
0.863, 6.942e-5
0.862, 6.940e-5
0.861, 6.939e-5
0.860, 6.937e-5
0.859, 6.939e-5
0.858, 6.946e-5
0.857, 6.951e-5
0.856, 6.962e-5
0.855, 6.967e-5
0.854, 6.969e-5
0.853, 6.971e-5
0.852, 6.970e-5
0.851, 6.970e-5
0.850, 6.972e-5
0.849, 6.969e-5
0.848, 6.964e-5
0.847, 6.955e-5
0.846, 6.947e-5
0.845, 6.941e-5
0.844, 6.938e-5
0.843, 6.941e-5
0.842, 6.946e-5
0.841, 6.953e-5
0.840, 6.962e-5
0.839, 6.969e-5
0.838, 6.975e-5
0.837, 6.977e-5
0.836, 6.978e-5
0.835, 6.984e-5
0.834, 6.990e-5
0.833, 6.998e-5
0.832, 7.004e-5
0.831, 7.005e-5
0.830, 7.004e-5
0.829, 6.999e-5
0.828, 6.996e-5
0.827, 6.994e-5
0.826, 6.992e-5
0.825, 6.993e-5
0.824, 6.992e-5
0.823, 6.992e-5
0.822, 6.994e-5
0.821, 7.001e-5
0.820, 7.011e-5
0.819, 7.019e-5
0.818, 7.026e-5
0.817, 7.027e-5
0.816, 7.030e-5
0.815, 7.034e-5
0.814, 7.039e-5
0.813, 7.044e-5
0.812, 7.044e-5
0.811, 7.042e-5
0.810, 7.040e-5
0.809, 7.039e-5
0.808, 7.039e-5
0.807, 7.037e-5
0.806, 7.036e-5
0.805, 7.035e-5
0.804, 7.035e-5
0.803, 7.040e-5
0.802, 7.042e-5
0.801, 7.047e-5
0.800, 7.053e-5
0.799, 7.062e-5
0.798, 7.073e-5
0.797, 7.080e-5
0.796, 7.080e-5
0.795, 7.075e-5
0.794, 7.066e-5
0.793, 7.064e-5
0.792, 7.065e-5
0.791, 7.064e-5
0.790, 7.063e-5
0.789, 7.056e-5
0.788, 7.052e-5
0.787, 7.052e-5
0.786, 7.054e-5
0.785, 7.055e-5
0.784, 7.056e-5
0.783, 7.060e-5
0.782, 7.065e-5
0.781, 7.076e-5
0.780, 7.083e-5
0.779, 7.086e-5
0.778, 7.085e-5
0.777, 7.081e-5
0.776, 7.077e-5
0.775, 7.075e-5
0.774, 7.071e-5
0.773, 7.067e-5
0.772, 7.057e-5
0.771, 7.050e-5
0.770, 7.049e-5
0.769, 7.046e-5
0.768, 7.046e-5
0.767, 7.045e-5
0.766, 7.044e-5
0.765, 7.048e-5
0.764, 7.053e-5
0.763, 7.062e-5
0.762, 7.066e-5
0.761, 7.066e-5
0.760, 7.067e-5
0.759, 7.065e-5
0.758, 7.065e-5
0.757, 7.064e-5
0.756, 7.063e-5
0.755, 7.059e-5
0.754, 7.056e-5
0.753, 7.053e-5
0.752, 7.045e-5
0.751, 7.036e-5
0.750, 7.028e-5
0.749, 7.025e-5
0.748, 7.029e-5
0.747, 7.034e-5
0.746, 7.036e-5
0.745, 7.033e-5
0.744, 7.032e-5
0.743, 7.033e-5
0.742, 7.039e-5
0.741, 7.043e-5
0.740, 7.043e-5
0.739, 7.039e-5
0.738, 7.036e-5
0.737, 7.031e-5
0.736, 7.028e-5
0.735, 7.026e-5
0.734, 7.020e-5
0.733, 7.017e-5
0.732, 7.013e-5
0.731, 7.012e-5
0.730, 7.013e-5
0.729, 7.010e-5
0.728, 7.011e-5
0.727, 7.011e-5
0.726, 7.013e-5
0.725, 7.014e-5
0.724, 7.010e-5
0.723, 7.010e-5
0.722, 7.009e-5
0.721, 7.011e-5
0.720, 7.014e-5
0.719, 7.015e-5
0.718, 7.019e-5
0.717, 7.016e-5
0.716, 7.013e-5
0.715, 7.017e-5
0.714, 7.019e-5
0.713, 7.022e-5
0.712, 7.020e-5
0.711, 7.018e-5
0.710, 7.012e-5
0.709, 7.006e-5
0.708, 7.006e-5
0.707, 7.003e-5
0.706, 7.004e-5
0.705, 7.004e-5
0.704, 7.002e-5
0.703, 7.004e-5
0.702, 7.000e-5
0.701, 7.004e-5
0.700, 7.009e-5
0.699, 7.014e-5
0.698, 7.021e-5
0.697, 7.019e-5
0.696, 7.009e-5
0.695, 7.003e-5
0.694, 6.996e-5
0.693, 6.997e-5
0.692, 6.995e-5
0.691, 6.993e-5
0.690, 6.988e-5
0.689, 6.984e-5
0.688, 6.984e-5
0.687, 6.981e-5
0.686, 6.978e-5
0.685, 6.974e-5
0.684, 6.969e-5
0.683, 6.968e-5
0.682, 6.967e-5
0.681, 6.966e-5
0.680, 6.963e-5
0.679, 6.961e-5
0.678, 6.961e-5
0.677, 6.962e-5
0.676, 6.964e-5
0.675, 6.963e-5
0.674, 6.960e-5
0.673, 6.958e-5
0.672, 6.958e-5
0.671, 6.960e-5
0.670, 6.956e-5
0.669, 6.949e-5
0.668, 6.941e-5
0.667, 6.934e-5
0.666, 6.933e-5
0.665, 6.932e-5
0.664, 6.930e-5
0.663, 6.928e-5
0.662, 6.925e-5
0.661, 6.926e-5
0.660, 6.927e-5
0.659, 6.927e-5
0.658, 6.928e-5
0.657, 6.926e-5
0.656, 6.924e-5
0.655, 6.924e-5
0.654, 6.921e-5
0.653, 6.922e-5
0.652, 6.918e-5
0.651, 6.909e-5
0.650, 6.903e-5
0.649, 6.899e-5
0.648, 6.899e-5
0.647, 6.899e-5
0.646, 6.898e-5
0.645, 6.897e-5
0.644, 6.892e-5
0.643, 6.892e-5
0.642, 6.893e-5
0.641, 6.897e-5
0.640, 6.902e-5
0.639, 6.900e-5
0.638, 6.899e-5
0.637, 6.898e-5
0.636, 6.897e-5
0.635, 6.895e-5
0.634, 6.888e-5
0.633, 6.884e-5
0.632, 6.879e-5
0.631, 6.877e-5
0.630, 6.876e-5
0.629, 6.872e-5
0.628, 6.868e-5
0.627, 6.865e-5
0.626, 6.863e-5
0.625, 6.864e-5
0.624, 6.867e-5
0.623, 6.870e-5
0.622, 6.871e-5
0.621, 6.869e-5
0.620, 6.864e-5
0.619, 6.856e-5
0.618, 6.855e-5
0.617, 6.856e-5
0.616, 6.863e-5
0.615, 6.871e-5
0.614, 6.872e-5
0.613, 6.874e-5
0.612, 6.873e-5
0.611, 6.870e-5
0.610, 6.869e-5
0.609, 6.870e-5
0.608, 6.872e-5
0.607, 6.871e-5
0.606, 6.864e-5
0.605, 6.853e-5
0.604, 6.843e-5
0.603, 6.841e-5
0.602, 6.842e-5
0.601, 6.843e-5
0.600, 6.842e-5
0.599, 6.839e-5
0.598, 6.838e-5
0.597, 6.836e-5
0.596, 6.836e-5
0.595, 6.838e-5
0.594, 6.839e-5
0.593, 6.841e-5
0.592, 6.842e-5
0.591, 6.838e-5
0.590, 6.831e-5
0.589, 6.825e-5
0.588, 6.826e-5
0.587, 6.827e-5
0.586, 6.827e-5
0.585, 6.820e-5
0.584, 6.811e-5
0.583, 6.805e-5
0.582, 6.803e-5
0.581, 6.807e-5
0.580, 6.810e-5
0.579, 6.809e-5
0.578, 6.807e-5
0.577, 6.803e-5
0.576, 6.804e-5
0.575, 6.804e-5
0.574, 6.803e-5
0.573, 6.804e-5
0.572, 6.801e-5
0.571, 6.800e-5
0.570, 6.798e-5
0.569, 6.792e-5
0.568, 6.788e-5
0.567, 6.786e-5
0.566, 6.787e-5
0.565, 6.789e-5
0.564, 6.787e-5
0.563, 6.784e-5
0.562, 6.778e-5
0.561, 6.778e-5
0.560, 6.782e-5
0.559, 6.781e-5
0.558, 6.777e-5
0.557, 6.769e-5
0.556, 6.762e-5
0.555, 6.758e-5
0.554, 6.758e-5
0.553, 6.759e-5
0.552, 6.755e-5
0.551, 6.752e-5
0.550, 6.744e-5
0.549, 6.730e-5
0.548, 6.721e-5
0.547, 6.713e-5
0.546, 6.711e-5
0.545, 6.707e-5
0.544, 6.703e-5
0.543, 6.697e-5
0.542, 6.687e-5
0.541, 6.679e-5
0.540, 6.671e-5
0.539, 6.666e-5
0.538, 6.659e-5
0.537, 6.646e-5
0.536, 6.636e-5
0.535, 6.622e-5
0.534, 6.604e-5
0.533, 6.594e-5
0.532, 6.578e-5
0.531, 6.564e-5
0.530, 6.546e-5
0.529, 6.529e-5
0.528, 6.516e-5
0.527, 6.499e-5
0.526, 6.484e-5
0.525, 6.475e-5
0.524, 6.459e-5
0.523, 6.447e-5
0.522, 6.430e-5
0.521, 6.412e-5
0.520, 6.393e-5
0.519, 6.369e-5
0.518, 6.351e-5
0.517, 6.328e-5
0.516, 6.306e-5
0.515, 6.274e-5
0.514, 6.239e-5
0.513, 6.208e-5
0.512, 6.169e-5
0.511, 6.149e-5
0.510, 6.126e-5
0.509, 6.100e-5
0.508, 6.073e-5
0.507, 6.038e-5
0.506, 6.015e-5
0.505, 5.989e-5
0.504, 5.961e-5
0.503, 5.934e-5
0.502, 5.896e-5
0.501, 5.864e-5
0.500, 5.822e-5
0.499, 5.786e-5
0.498, 5.743e-5
0.497, 5.695e-5
0.496, 5.654e-5
0.495, 5.604e-5
0.494, 5.548e-5
0.493, 5.507e-5
0.492, 5.445e-5
0.491, 5.394e-5
0.490, 5.341e-5
0.489, 5.284e-5
0.488, 5.233e-5
0.487, 5.161e-5
0.486, 5.104e-5
0.485, 5.049e-5
0.484, 4.986e-5
0.483, 4.930e-5
0.482, 4.856e-5
0.481, 4.798e-5
0.480, 4.716e-5
0.479, 4.634e-5
0.478, 4.557e-5
0.477, 4.470e-5
0.476, 4.388e-5
0.475, 4.288e-5
0.474, 4.207e-5
0.473, 4.116e-5
0.472, 4.008e-5
0.471, 3.921e-5
0.470, 3.812e-5
0.469, 3.718e-5
0.468, 3.621e-5
0.467, 3.499e-5
0.466, 3.415e-5
0.465, 3.288e-5
0.464, 3.178e-5
0.463, 3.062e-5
0.462, 2.919e-5
0.461, 2.833e-5
0.460, 2.687e-5
0.459, 2.552e-5
0.458, 2.437e-5
0.457, 2.277e-5
0.456, 2.165e-5
0.455, 2.011e-5
0.454, 1.883e-5
0.453, 1.759e-5
0.452, 1.587e-5
0.451, 1.477e-5
0.450, 1.300e-5
0.449, 1.178e-5
0.448, 1.068e-5
0.447, 8.522e-6
0.446, 7.306e-6
0.445, 5.490e-6
0.444, 3.903e-6
0.443, 2.487e-6
0.442, 5.213e-7
0.441, -6.404e-7
0.440, -2.502e-6
0.439, -4.143e-6
0.438, -5.551e-6
0.437, -7.313e-6
0.436, -8.531e-6
0.435, -1.106e-5
0.434, -1.210e-5
0.433, -1.366e-5
0.432, -1.550e-5
0.431, -1.675e-5
0.430, -1.862e-5
0.429, -2.002e-5
0.428, -2.148e-5
0.427, -2.323e-5
0.426, -2.419e-5
0.425, -2.607e-5
0.424, -2.725e-5
0.423, -2.869e-5
0.422, -3.004e-5
0.421, -3.092e-5
0.420, -3.266e-5
0.419, -3.379e-5
0.418, -3.499e-5
0.417, -3.652e-5
0.416, -3.716e-5
0.415, -3.881e-5
0.414, -3.968e-5
0.413, -4.047e-5
0.412, -4.197e-5
0.411, -4.239e-5
0.410, -4.224e-5
0.409, -4.329e-5
0.408, -4.427e-5
0.407, -4.559e-5
0.406, -4.601e-5
0.405, -4.699e-5
0.404, -4.750e-5
0.403, -4.779e-5
0.402, -4.866e-5
0.401, -4.888e-5
0.400, -4.943e-5
0.399, -4.976e-5
0.398, -5.000e-5
0.397, -5.015e-5
0.396, -5.046e-5
0.395, -5.091e-5
0.394, -5.102e-5
0.393, -5.105e-5
0.392, -5.150e-5
0.391, -5.135e-5
0.390, -5.166e-5
0.389, -5.154e-5
0.388, -5.148e-5
0.387, -5.171e-5
0.386, -5.128e-5
0.385, -5.139e-5
0.384, -5.135e-5
0.383, -5.091e-5
0.382, -5.084e-5
0.381, -5.032e-5
0.380, -5.027e-5
0.379, -4.997e-5
0.378, -4.957e-5
0.377, -4.936e-5
0.376, -4.887e-5
0.375, -4.858e-5
0.374, -4.823e-5
0.373, -4.774e-5
0.372, -4.747e-5
0.371, -4.679e-5
0.370, -4.651e-5
0.369, -4.604e-5
0.368, -4.552e-5
0.367, -4.526e-5
0.366, -4.466e-5
0.365, -4.414e-5
0.364, -4.369e-5
0.363, -4.311e-5
0.362, -4.273e-5
0.361, -4.216e-5
0.360, -4.168e-5
0.359, -4.119e-5
0.358, -4.059e-5
0.357, -4.019e-5
0.356, -3.963e-5
0.355, -3.917e-5
0.354, -3.869e-5
0.353, -3.811e-5
0.352, -3.769e-5
0.351, -3.718e-5
0.350, -3.669e-5
0.349, -3.616e-5
0.348, -3.564e-5
0.347, -3.521e-5
0.346, -3.462e-5
0.345, -3.416e-5
0.344, -3.367e-5
0.343, -3.318e-5
0.342, -3.274e-5
0.341, -3.220e-5
0.340, -3.178e-5
0.339, -3.133e-5
0.338, -3.081e-5
0.337, -3.040e-5
0.336, -2.989e-5
0.335, -2.947e-5
0.334, -2.905e-5
0.333, -2.864e-5
0.332, -2.826e-5
0.331, -2.778e-5
0.330, -2.735e-5
0.329, -2.694e-5
0.328, -2.649e-5
0.327, -2.610e-5
0.326, -2.568e-5
0.325, -2.528e-5
0.324, -2.493e-5
0.323, -2.451e-5
0.322, -2.416e-5
0.321, -2.376e-5
0.320, -2.335e-5
0.319, -2.301e-5
0.318, -2.266e-5
0.317, -2.231e-5
0.316, -2.195e-5
0.315, -2.163e-5
0.314, -2.130e-5
0.313, -2.095e-5
0.312, -2.063e-5
0.311, -2.030e-5
0.310, -1.998e-5
0.309, -1.968e-5
0.308, -1.938e-5
0.307, -1.910e-5
0.306, -1.877e-5
0.305, -1.847e-5
0.304, -1.819e-5
0.303, -1.790e-5
0.302, -1.763e-5
0.301, -1.735e-5
0.300, -1.710e-5
0.299, -1.684e-5
0.298, -1.657e-5
0.297, -1.633e-5
0.296, -1.608e-5
0.295, -1.583e-5
0.294, -1.561e-5
0.293, -1.537e-5
0.292, -1.516e-5
0.291, -1.493e-5
0.290, -1.470e-5
0.289, -1.449e-5
0.288, -1.425e-5
0.287, -1.404e-5
0.286, -1.383e-5
0.285, -1.363e-5
0.284, -1.344e-5
0.283, -1.323e-5
0.282, -1.305e-5
0.281, -1.285e-5
0.280, -1.266e-5
0.279, -1.249e-5
0.278, -1.229e-5
0.277, -1.213e-5
0.276, -1.195e-5
0.275, -1.177e-5
0.274, -1.161e-5
0.273, -1.144e-5
0.272, -1.130e-5
0.271, -1.115e-5
0.270, -1.098e-5
0.269, -1.083e-5
0.268, -1.067e-5
0.267, -1.053e-5
0.266, -1.037e-5
0.265, -1.023e-5
0.264, -1.010e-5
0.263, -9.947e-6
0.262, -9.811e-6
0.261, -9.677e-6
0.260, -9.543e-6
0.259, -9.424e-6
0.258, -9.292e-6
0.257, -9.176e-6
0.256, -9.051e-6
0.255, -8.921e-6
0.254, -8.799e-6
0.253, -8.666e-6
0.252, -8.559e-6
0.251, -8.448e-6
0.250, -8.330e-6
0.249, -8.230e-6
0.248, -8.116e-6
0.247, -8.014e-6
0.246, -7.912e-6
0.245, -7.802e-6
0.244, -7.712e-6
0.243, -7.610e-6
0.242, -7.512e-6
0.241, -7.413e-6
0.240, -7.307e-6
0.239, -7.228e-6
0.238, -7.126e-6
0.237, -7.032e-6
0.236, -6.943e-6
0.235, -6.847e-6
0.234, -6.769e-6
0.233, -6.681e-6
0.232, -6.600e-6
0.231, -6.526e-6
0.230, -6.439e-6
0.229, -6.367e-6
0.228, -6.287e-6
0.227, -6.210e-6
0.226, -6.136e-6
0.225, -6.055e-6
0.224, -5.988e-6
0.223, -5.913e-6
0.222, -5.845e-6
0.221, -5.776e-6
0.220, -5.703e-6
0.219, -5.638e-6
0.218, -5.556e-6
0.217, -5.498e-6
0.216, -5.438e-6
0.215, -5.369e-6
0.214, -5.315e-6
0.213, -5.245e-6
0.212, -5.189e-6
0.211, -5.129e-6
0.210, -5.065e-6
0.209, -5.018e-6
0.208, -4.953e-6
0.207, -4.902e-6
0.206, -4.854e-6
0.205, -4.786e-6
0.204, -4.755e-6
0.203, -4.707e-6
0.202, -4.654e-6
0.201, -4.608e-6
0.200, -4.556e-6
0.199, -4.513e-6
0.198, -4.461e-6
0.197, -4.415e-6
0.196, -4.375e-6
0.195, -4.326e-6
0.194, -4.288e-6
0.193, -4.244e-6
0.192, -4.204e-6
0.191, -4.172e-6
0.190, -4.132e-6
0.189, -4.103e-6
0.188, -4.068e-6
0.187, -4.035e-6
0.186, -4.002e-6
0.185, -3.968e-6
0.184, -3.940e-6
0.183, -3.905e-6
0.182, -3.872e-6
0.181, -3.846e-6
0.180, -3.814e-6
0.179, -3.790e-6
0.178, -3.753e-6
0.177, -3.735e-6
0.176, -3.709e-6
0.175, -3.678e-6
0.174, -3.659e-6
0.173, -3.630e-6
0.172, -3.614e-6
0.171, -3.593e-6
0.170, -3.560e-6
0.169, -3.547e-6
0.168, -3.521e-6
0.167, -3.496e-6
0.166, -3.483e-6
0.165, -3.458e-6
0.164, -3.447e-6
0.163, -3.420e-6
0.162, -3.401e-6
0.161, -3.388e-6
0.160, -3.366e-6
0.159, -3.354e-6
0.158, -3.328e-6
0.157, -3.311e-6
0.156, -3.303e-6
0.155, -3.282e-6
0.154, -3.272e-6
0.153, -3.254e-6
0.152, -3.243e-6
0.151, -3.231e-6
0.150, -3.213e-6
0.149, -3.208e-6
0.148, -3.192e-6
0.147, -3.181e-6
0.146, -3.171e-6
0.145, -3.156e-6
0.144, -3.152e-6
0.143, -3.138e-6
0.142, -3.129e-6
0.141, -3.115e-6
0.140, -3.104e-6
0.139, -3.103e-6
0.138, -3.088e-6
0.137, -3.082e-6
0.136, -3.077e-6
0.135, -3.066e-6
0.134, -3.068e-6
0.133, -3.057e-6
0.132, -3.058e-6
0.131, -3.054e-6
0.130, -3.043e-6
0.129, -3.046e-6
0.128, -3.041e-6
0.127, -3.037e-6
0.126, -3.034e-6
0.125, -3.026e-6
0.124, -3.032e-6
0.123, -3.023e-6
0.122, -3.023e-6
0.121, -3.025e-6
0.120, -3.022e-6
0.119, -3.026e-6
0.118, -3.023e-6
0.117, -3.023e-6
0.116, -3.028e-6
0.115, -3.024e-6
0.114, -3.032e-6
0.113, -3.029e-6
0.112, -3.033e-6
0.111, -3.041e-6
0.110, -3.040e-6
0.109, -3.044e-6
0.108, -3.049e-6
0.107, -3.053e-6
0.106, -3.061e-6
0.105, -3.064e-6
0.104, -3.075e-6
0.103, -3.079e-6
0.102, -3.084e-6
0.101, -3.092e-6
0.100, -3.095e-6
0.099, -3.110e-6
0.098, -3.108e-6
0.097, -3.119e-6
0.096, -3.133e-6
0.095, -3.134e-6
0.094, -3.149e-6
0.093, -3.157e-6
0.092, -3.167e-6
0.091, -3.180e-6
0.090, -3.177e-6
0.089, -3.201e-6
0.088, -3.207e-6
0.087, -3.221e-6
0.086, -3.235e-6
0.085, -3.240e-6
0.084, -3.260e-6
0.083, -3.269e-6
0.082, -3.280e-6
0.081, -3.297e-6
0.080, -3.306e-6
0.079, -3.324e-6
0.078, -3.336e-6
0.077, -3.357e-6
0.076, -3.373e-6
0.075, -3.381e-6
0.074, -3.401e-6
0.073, -3.413e-6
0.072, -3.429e-6
0.071, -3.451e-6
0.070, -3.463e-6
0.069, -3.485e-6
0.068, -3.500e-6
0.067, -3.516e-6
0.066, -3.537e-6
0.065, -3.550e-6
0.064, -3.567e-6
0.063, -3.587e-6
0.062, -3.609e-6
0.061, -3.628e-6
0.060, -3.647e-6
0.059, -3.671e-6
0.058, -3.687e-6
0.057, -3.713e-6
0.056, -3.740e-6
0.055, -3.756e-6
0.054, -3.783e-6
0.053, -3.798e-6
0.052, -3.824e-6
0.051, -3.849e-6
0.050, -3.866e-6
0.049, -3.896e-6
0.048, -3.918e-6
0.047, -3.942e-6
0.046, -3.971e-6
0.045, -3.991e-6
0.044, -4.024e-6
0.043, -4.042e-6
0.042, -4.065e-6
0.041, -4.094e-6
0.040, -4.112e-6
0.039, -4.140e-6
0.038, -4.164e-6
0.037, -4.193e-6
0.036, -4.227e-6
0.035, -4.247e-6
0.034, -4.281e-6
0.033, -4.308e-6
0.032, -4.339e-6
0.031, -4.369e-6
0.030, -4.393e-6
0.029, -4.431e-6
0.028, -4.461e-6
0.027, -4.488e-6
0.026, -4.525e-6
0.025, -4.550e-6
0.024, -4.589e-6
0.023, -4.615e-6
0.022, -4.648e-6
0.021, -4.689e-6
0.020, -4.717e-6
0.019, -4.753e-6
0.018, -4.778e-6
0.017, -4.817e-6
0.016, -4.854e-6
0.015, -4.884e-6
0.014, -4.927e-6
0.013, -4.951e-6
0.012, -4.994e-6
0.011, -5.033e-6
0.010, -5.059e-6
0.009, -5.106e-6
0.008, -5.139e-6
0.007, -5.183e-6
0.006, -5.223e-6
0.005, -5.253e-6
0.004, -5.300e-6
0.003, -5.332e-6
0.002, -5.371e-6
0.001, -5.413e-6
