June 30, 2026   19:27:28
Cyclic Voltammetry
File: mecn_ar_0.1mtbapf6_3mm_1mmco(dmgh)2(py)cl_1mmzn(cyclen)(otf)2_2
Data Source:  Experiment
Instrument Model:  CHI660D
Header: 
Note: 

Init E (V) = 0
High E (V) = 0.9
Low E (V) = -1.3
Final E (V) = 0
Init P/N = N
Scan Rate (V/s) = 0.1
Segment = 3
Sample Interval (V) = 0.001
Quiet Time (sec) = 2
Sensitivity (A/V) = 1e-4
Comp R (ohm) = 136.9

Results:

Channel 1:
Segment 1:
Ep = -0.370V
ip = -6.951e-6A
Ah = -6.414e-6C

Segment 2:
Ep = 0.447V
ip = 1.102e-4A
Ah = 6.709e-5C

Segment 3:
Ep = 0.389V
ip = -1.155e-4A
Ah = -7.386e-5C

Potential/V, Current/A

0.000, -2.258e-6
-0.001, -2.340e-6
-0.002, -2.393e-6
-0.003, -2.447e-6
-0.004, -2.490e-6
-0.005, -2.538e-6
-0.006, -2.578e-6
-0.007, -2.620e-6
-0.008, -2.669e-6
-0.009, -2.706e-6
-0.010, -2.753e-6
-0.011, -2.792e-6
-0.012, -2.828e-6
-0.013, -2.873e-6
-0.014, -2.909e-6
-0.015, -2.956e-6
-0.016, -2.999e-6
-0.017, -3.036e-6
-0.018, -3.082e-6
-0.019, -3.119e-6
-0.020, -3.168e-6
-0.021, -3.212e-6
-0.022, -3.250e-6
-0.023, -3.298e-6
-0.024, -3.335e-6
-0.025, -3.386e-6
-0.026, -3.424e-6
-0.027, -3.466e-6
-0.028, -3.514e-6
-0.029, -3.550e-6
-0.030, -3.595e-6
-0.031, -3.640e-6
-0.032, -3.683e-6
-0.033, -3.734e-6
-0.034, -3.771e-6
-0.035, -3.817e-6
-0.036, -3.865e-6
-0.037, -3.905e-6
-0.038, -3.951e-6
-0.039, -3.996e-6
-0.040, -4.044e-6
-0.041, -4.085e-6
-0.042, -4.126e-6
-0.043, -4.176e-6
-0.044, -4.222e-6
-0.045, -4.270e-6
-0.046, -4.316e-6
-0.047, -4.362e-6
-0.048, -4.412e-6
-0.049, -4.456e-6
-0.050, -4.504e-6
-0.051, -4.549e-6
-0.052, -4.598e-6
-0.053, -4.653e-6
-0.054, -4.701e-6
-0.055, -4.750e-6
-0.056, -4.797e-6
-0.057, -4.845e-6
-0.058, -4.899e-6
-0.059, -4.944e-6
-0.060, -5.001e-6
-0.061, -5.047e-6
-0.062, -5.096e-6
-0.063, -5.152e-6
-0.064, -5.192e-6
-0.065, -5.246e-6
-0.066, -5.296e-6
-0.067, -5.345e-6
-0.068, -5.401e-6
-0.069, -5.448e-6
-0.070, -5.499e-6
-0.071, -5.550e-6
-0.072, -5.599e-6
-0.073, -5.656e-6
-0.074, -5.702e-6
-0.075, -5.755e-6
-0.076, -5.809e-6
-0.077, -5.860e-6
-0.078, -5.910e-6
-0.079, -5.955e-6
-0.080, -6.006e-6
-0.081, -6.055e-6
-0.082, -6.103e-6
-0.083, -6.159e-6
-0.084, -6.202e-6
-0.085, -6.255e-6
-0.086, -6.302e-6
-0.087, -6.352e-6
-0.088, -6.406e-6
-0.089, -6.444e-6
-0.090, -6.497e-6
-0.091, -6.546e-6
-0.092, -6.595e-6
-0.093, -6.651e-6
-0.094, -6.692e-6
-0.095, -6.744e-6
-0.096, -6.789e-6
-0.097, -6.835e-6
-0.098, -6.887e-6
-0.099, -6.928e-6
-0.100, -6.980e-6
-0.101, -7.021e-6
-0.102, -7.072e-6
-0.103, -7.124e-6
-0.104, -7.163e-6
-0.105, -7.208e-6
-0.106, -7.250e-6
-0.107, -7.293e-6
-0.108, -7.341e-6
-0.109, -7.381e-6
-0.110, -7.426e-6
-0.111, -7.467e-6
-0.112, -7.510e-6
-0.113, -7.555e-6
-0.114, -7.593e-6
-0.115, -7.633e-6
-0.116, -7.673e-6
-0.117, -7.712e-6
-0.118, -7.755e-6
-0.119, -7.789e-6
-0.120, -7.835e-6
-0.121, -7.874e-6
-0.122, -7.911e-6
-0.123, -7.951e-6
-0.124, -7.985e-6
-0.125, -8.026e-6
-0.126, -8.060e-6
-0.127, -8.099e-6
-0.128, -8.145e-6
-0.129, -8.172e-6
-0.130, -8.210e-6
-0.131, -8.242e-6
-0.132, -8.278e-6
-0.133, -8.316e-6
-0.134, -8.340e-6
-0.135, -8.377e-6
-0.136, -8.405e-6
-0.137, -8.433e-6
-0.138, -8.469e-6
-0.139, -8.491e-6
-0.140, -8.524e-6
-0.141, -8.549e-6
-0.142, -8.579e-6
-0.143, -8.614e-6
-0.144, -8.636e-6
-0.145, -8.667e-6
-0.146, -8.692e-6
-0.147, -8.716e-6
-0.148, -8.750e-6
-0.149, -8.771e-6
-0.150, -8.802e-6
-0.151, -8.825e-6
-0.152, -8.851e-6
-0.153, -8.875e-6
-0.154, -8.894e-6
-0.155, -8.921e-6
-0.156, -8.941e-6
-0.157, -8.964e-6
-0.158, -8.989e-6
-0.159, -9.010e-6
-0.160, -9.034e-6
-0.161, -9.056e-6
-0.162, -9.080e-6
-0.163, -9.102e-6
-0.164, -9.120e-6
-0.165, -9.143e-6
-0.166, -9.153e-6
-0.167, -9.177e-6
-0.168, -9.203e-6
-0.169, -9.220e-6
-0.170, -9.244e-6
-0.171, -9.258e-6
-0.172, -9.280e-6
-0.173, -9.296e-6
-0.174, -9.312e-6
-0.175, -9.339e-6
-0.176, -9.353e-6
-0.177, -9.370e-6
-0.178, -9.394e-6
-0.179, -9.414e-6
-0.180, -9.437e-6
-0.181, -9.451e-6
-0.182, -9.471e-6
-0.183, -9.494e-6
-0.184, -9.508e-6
-0.185, -9.532e-6
-0.186, -9.548e-6
-0.187, -9.567e-6
-0.188, -9.590e-6
-0.189, -9.600e-6
-0.190, -9.624e-6
-0.191, -9.641e-6
-0.192, -9.653e-6
-0.193, -9.678e-6
-0.194, -9.693e-6
-0.195, -9.717e-6
-0.196, -9.736e-6
-0.197, -9.760e-6
-0.198, -9.777e-6
-0.199, -9.797e-6
-0.200, -9.824e-6
-0.201, -9.842e-6
-0.202, -9.865e-6
-0.203, -9.892e-6
-0.204, -9.907e-6
-0.205, -9.933e-6
-0.206, -9.953e-6
-0.207, -9.981e-6
-0.208, -1.001e-5
-0.209, -1.004e-5
-0.210, -1.007e-5
-0.211, -1.009e-5
-0.212, -1.012e-5
-0.213, -1.015e-5
-0.214, -1.018e-5
-0.215, -1.021e-5
-0.216, -1.025e-5
-0.217, -1.028e-5
-0.218, -1.032e-5
-0.219, -1.035e-5
-0.220, -1.040e-5
-0.221, -1.043e-5
-0.222, -1.048e-5
-0.223, -1.052e-5
-0.224, -1.056e-5
-0.225, -1.061e-5
-0.226, -1.065e-5
-0.227, -1.070e-5
-0.228, -1.074e-5
-0.229, -1.079e-5
-0.230, -1.085e-5
-0.231, -1.089e-5
-0.232, -1.095e-5
-0.233, -1.100e-5
-0.234, -1.106e-5
-0.235, -1.112e-5
-0.236, -1.117e-5
-0.237, -1.123e-5
-0.238, -1.129e-5
-0.239, -1.135e-5
-0.240, -1.142e-5
-0.241, -1.149e-5
-0.242, -1.156e-5
-0.243, -1.162e-5
-0.244, -1.169e-5
-0.245, -1.176e-5
-0.246, -1.183e-5
-0.247, -1.190e-5
-0.248, -1.198e-5
-0.249, -1.205e-5
-0.250, -1.213e-5
-0.251, -1.220e-5
-0.252, -1.228e-5
-0.253, -1.236e-5
-0.254, -1.244e-5
-0.255, -1.253e-5
-0.256, -1.260e-5
-0.257, -1.269e-5
-0.258, -1.278e-5
-0.259, -1.286e-5
-0.260, -1.296e-5
-0.261, -1.304e-5
-0.262, -1.313e-5
-0.263, -1.322e-5
-0.264, -1.330e-5
-0.265, -1.340e-5
-0.266, -1.349e-5
-0.267, -1.358e-5
-0.268, -1.367e-5
-0.269, -1.375e-5
-0.270, -1.385e-5
-0.271, -1.394e-5
-0.272, -1.404e-5
-0.273, -1.414e-5
-0.274, -1.423e-5
-0.275, -1.433e-5
-0.276, -1.443e-5
-0.277, -1.453e-5
-0.278, -1.462e-5
-0.279, -1.472e-5
-0.280, -1.482e-5
-0.281, -1.492e-5
-0.282, -1.502e-5
-0.283, -1.512e-5
-0.284, -1.522e-5
-0.285, -1.532e-5
-0.286, -1.542e-5
-0.287, -1.551e-5
-0.288, -1.561e-5
-0.289, -1.571e-5
-0.290, -1.582e-5
-0.291, -1.591e-5
-0.292, -1.601e-5
-0.293, -1.611e-5
-0.294, -1.619e-5
-0.295, -1.629e-5
-0.296, -1.639e-5
-0.297, -1.648e-5
-0.298, -1.658e-5
-0.299, -1.667e-5
-0.300, -1.677e-5
-0.301, -1.685e-5
-0.302, -1.695e-5
-0.303, -1.704e-5
-0.304, -1.713e-5
-0.305, -1.722e-5
-0.306, -1.731e-5
-0.307, -1.740e-5
-0.308, -1.749e-5
-0.309, -1.757e-5
-0.310, -1.765e-5
-0.311, -1.773e-5
-0.312, -1.781e-5
-0.313, -1.790e-5
-0.314, -1.797e-5
-0.315, -1.805e-5
-0.316, -1.813e-5
-0.317, -1.821e-5
-0.318, -1.828e-5
-0.319, -1.836e-5
-0.320, -1.842e-5
-0.321, -1.849e-5
-0.322, -1.856e-5
-0.323, -1.863e-5
-0.324, -1.870e-5
-0.325, -1.876e-5
-0.326, -1.882e-5
-0.327, -1.889e-5
-0.328, -1.895e-5
-0.329, -1.900e-5
-0.330, -1.906e-5
-0.331, -1.911e-5
-0.332, -1.917e-5
-0.333, -1.923e-5
-0.334, -1.927e-5
-0.335, -1.933e-5
-0.336, -1.937e-5
-0.337, -1.942e-5
-0.338, -1.946e-5
-0.339, -1.950e-5
-0.340, -1.955e-5
-0.341, -1.959e-5
-0.342, -1.963e-5
-0.343, -1.966e-5
-0.344, -1.969e-5
-0.345, -1.972e-5
-0.346, -1.974e-5
-0.347, -1.977e-5
-0.348, -1.980e-5
-0.349, -1.982e-5
-0.350, -1.985e-5
-0.351, -1.986e-5
-0.352, -1.989e-5
-0.353, -1.991e-5
-0.354, -1.992e-5
-0.355, -1.994e-5
-0.356, -1.995e-5
-0.357, -1.997e-5
-0.358, -1.998e-5
-0.359, -1.999e-5
-0.360, -2.000e-5
-0.361, -2.001e-5
-0.362, -2.002e-5
-0.363, -2.002e-5
-0.364, -2.003e-5
-0.365, -2.004e-5
-0.366, -2.003e-5
-0.367, -2.004e-5
-0.368, -2.004e-5
-0.369, -2.004e-5
-0.370, -2.004e-5
-0.371, -2.003e-5
-0.372, -2.003e-5
-0.373, -2.003e-5
-0.374, -2.002e-5
-0.375, -2.002e-5
-0.376, -2.001e-5
-0.377, -2.001e-5
-0.378, -2.000e-5
-0.379, -1.998e-5
-0.380, -1.998e-5
-0.381, -1.997e-5
-0.382, -1.996e-5
-0.383, -1.995e-5
-0.384, -1.996e-5
-0.385, -1.994e-5
-0.386, -1.992e-5
-0.387, -1.991e-5
-0.388, -1.990e-5
-0.389, -1.988e-5
-0.390, -1.987e-5
-0.391, -1.985e-5
-0.392, -1.984e-5
-0.393, -1.982e-5
-0.394, -1.980e-5
-0.395, -1.979e-5
-0.396, -1.976e-5
-0.397, -1.974e-5
-0.398, -1.972e-5
-0.399, -1.971e-5
-0.400, -1.969e-5
-0.401, -1.967e-5
-0.402, -1.966e-5
-0.403, -1.964e-5
-0.404, -1.961e-5
-0.405, -1.960e-5
-0.406, -1.956e-5
-0.407, -1.955e-5
-0.408, -1.953e-5
-0.409, -1.948e-5
-0.410, -1.947e-5
-0.411, -1.945e-5
-0.412, -1.944e-5
-0.413, -1.942e-5
-0.414, -1.939e-5
-0.415, -1.937e-5
-0.416, -1.934e-5
-0.417, -1.932e-5
-0.418, -1.930e-5
-0.419, -1.927e-5
-0.420, -1.925e-5
-0.421, -1.921e-5
-0.422, -1.918e-5
-0.423, -1.916e-5
-0.424, -1.913e-5
-0.425, -1.911e-5
-0.426, -1.909e-5
-0.427, -1.907e-5
-0.428, -1.905e-5
-0.429, -1.902e-5
-0.430, -1.900e-5
-0.431, -1.898e-5
-0.432, -1.897e-5
-0.433, -1.894e-5
-0.434, -1.892e-5
-0.435, -1.891e-5
-0.436, -1.887e-5
-0.437, -1.886e-5
-0.438, -1.883e-5
-0.439, -1.880e-5
-0.440, -1.877e-5
-0.441, -1.874e-5
-0.442, -1.872e-5
-0.443, -1.868e-5
-0.444, -1.866e-5
-0.445, -1.864e-5
-0.446, -1.860e-5
-0.447, -1.859e-5
-0.448, -1.856e-5
-0.449, -1.854e-5
-0.450, -1.852e-5
-0.451, -1.850e-5
-0.452, -1.849e-5
-0.453, -1.846e-5
-0.454, -1.844e-5
-0.455, -1.843e-5
-0.456, -1.840e-5
-0.457, -1.838e-5
-0.458, -1.836e-5
-0.459, -1.833e-5
-0.460, -1.830e-5
-0.461, -1.826e-5
-0.462, -1.824e-5
-0.463, -1.822e-5
-0.464, -1.819e-5
-0.465, -1.817e-5
-0.466, -1.813e-5
-0.467, -1.811e-5
-0.468, -1.809e-5
-0.469, -1.806e-5
-0.470, -1.805e-5
-0.471, -1.802e-5
-0.472, -1.801e-5
-0.473, -1.799e-5
-0.474, -1.797e-5
-0.475, -1.796e-5
-0.476, -1.793e-5
-0.477, -1.791e-5
-0.478, -1.788e-5
-0.479, -1.786e-5
-0.480, -1.784e-5
-0.481, -1.780e-5
-0.482, -1.778e-5
-0.483, -1.775e-5
-0.484, -1.773e-5
-0.485, -1.771e-5
-0.486, -1.769e-5
-0.487, -1.767e-5
-0.488, -1.766e-5
-0.489, -1.764e-5
-0.490, -1.763e-5
-0.491, -1.760e-5
-0.492, -1.759e-5
-0.493, -1.756e-5
-0.494, -1.754e-5
-0.495, -1.753e-5
-0.496, -1.749e-5
-0.497, -1.747e-5
-0.498, -1.745e-5
-0.499, -1.742e-5
-0.500, -1.741e-5
-0.501, -1.738e-5
-0.502, -1.736e-5
-0.503, -1.734e-5
-0.504, -1.732e-5
-0.505, -1.731e-5
-0.506, -1.728e-5
-0.507, -1.727e-5
-0.508, -1.725e-5
-0.509, -1.723e-5
-0.510, -1.722e-5
-0.511, -1.720e-5
-0.512, -1.719e-5
-0.513, -1.717e-5
-0.514, -1.715e-5
-0.515, -1.714e-5
-0.516, -1.711e-5
-0.517, -1.710e-5
-0.518, -1.707e-5
-0.519, -1.705e-5
-0.520, -1.704e-5
-0.521, -1.702e-5
-0.522, -1.700e-5
-0.523, -1.698e-5
-0.524, -1.697e-5
-0.525, -1.696e-5
-0.526, -1.694e-5
-0.527, -1.694e-5
-0.528, -1.692e-5
-0.529, -1.691e-5
-0.530, -1.690e-5
-0.531, -1.688e-5
-0.532, -1.687e-5
-0.533, -1.684e-5
-0.534, -1.682e-5
-0.535, -1.680e-5
-0.536, -1.678e-5
-0.537, -1.678e-5
-0.538, -1.675e-5
-0.539, -1.673e-5
-0.540, -1.672e-5
-0.541, -1.669e-5
-0.542, -1.668e-5
-0.543, -1.667e-5
-0.544, -1.666e-5
-0.545, -1.666e-5
-0.546, -1.664e-5
-0.547, -1.663e-5
-0.548, -1.661e-5
-0.549, -1.659e-5
-0.550, -1.657e-5
-0.551, -1.656e-5
-0.552, -1.656e-5
-0.553, -1.654e-5
-0.554, -1.653e-5
-0.555, -1.651e-5
-0.556, -1.649e-5
-0.557, -1.648e-5
-0.558, -1.646e-5
-0.559, -1.645e-5
-0.560, -1.643e-5
-0.561, -1.642e-5
-0.562, -1.642e-5
-0.563, -1.640e-5
-0.564, -1.639e-5
-0.565, -1.639e-5
-0.566, -1.637e-5
-0.567, -1.637e-5
-0.568, -1.635e-5
-0.569, -1.634e-5
-0.570, -1.634e-5
-0.571, -1.631e-5
-0.572, -1.630e-5
-0.573, -1.629e-5
-0.574, -1.628e-5
-0.575, -1.627e-5
-0.576, -1.624e-5
-0.577, -1.624e-5
-0.578, -1.622e-5
-0.579, -1.621e-5
-0.580, -1.621e-5
-0.581, -1.620e-5
-0.582, -1.620e-5
-0.583, -1.619e-5
-0.584, -1.618e-5
-0.585, -1.617e-5
-0.586, -1.615e-5
-0.587, -1.614e-5
-0.588, -1.613e-5
-0.589, -1.612e-5
-0.590, -1.611e-5
-0.591, -1.609e-5
-0.592, -1.610e-5
-0.593, -1.608e-5
-0.594, -1.607e-5
-0.595, -1.606e-5
-0.596, -1.605e-5
-0.597, -1.604e-5
-0.598, -1.603e-5
-0.599, -1.602e-5
-0.600, -1.601e-5
-0.601, -1.599e-5
-0.602, -1.599e-5
-0.603, -1.598e-5
-0.604, -1.597e-5
-0.605, -1.597e-5
-0.606, -1.595e-5
-0.607, -1.595e-5
-0.608, -1.594e-5
-0.609, -1.593e-5
-0.610, -1.593e-5
-0.611, -1.591e-5
-0.612, -1.591e-5
-0.613, -1.590e-5
-0.614, -1.586e-5
-0.615, -1.588e-5
-0.616, -1.586e-5
-0.617, -1.586e-5
-0.618, -1.585e-5
-0.619, -1.584e-5
-0.620, -1.584e-5
-0.621, -1.583e-5
-0.622, -1.583e-5
-0.623, -1.582e-5
-0.624, -1.581e-5
-0.625, -1.581e-5
-0.626, -1.580e-5
-0.627, -1.579e-5
-0.628, -1.579e-5
-0.629, -1.578e-5
-0.630, -1.578e-5
-0.631, -1.577e-5
-0.632, -1.577e-5
-0.633, -1.576e-5
-0.634, -1.574e-5
-0.635, -1.574e-5
-0.636, -1.572e-5
-0.637, -1.573e-5
-0.638, -1.571e-5
-0.639, -1.571e-5
-0.640, -1.572e-5
-0.641, -1.571e-5
-0.642, -1.571e-5
-0.643, -1.570e-5
-0.644, -1.570e-5
-0.645, -1.570e-5
-0.646, -1.569e-5
-0.647, -1.569e-5
-0.648, -1.568e-5
-0.649, -1.568e-5
-0.650, -1.568e-5
-0.651, -1.567e-5
-0.652, -1.567e-5
-0.653, -1.566e-5
-0.654, -1.565e-5
-0.655, -1.565e-5
-0.656, -1.564e-5
-0.657, -1.564e-5
-0.658, -1.563e-5
-0.659, -1.563e-5
-0.660, -1.564e-5
-0.661, -1.563e-5
-0.662, -1.564e-5
-0.663, -1.564e-5
-0.664, -1.564e-5
-0.665, -1.564e-5
-0.666, -1.563e-5
-0.667, -1.564e-5
-0.668, -1.564e-5
-0.669, -1.563e-5
-0.670, -1.563e-5
-0.671, -1.562e-5
-0.672, -1.562e-5
-0.673, -1.562e-5
-0.674, -1.562e-5
-0.675, -1.562e-5
-0.676, -1.562e-5
-0.677, -1.562e-5
-0.678, -1.561e-5
-0.679, -1.562e-5
-0.680, -1.562e-5
-0.681, -1.561e-5
-0.682, -1.562e-5
-0.683, -1.561e-5
-0.684, -1.562e-5
-0.685, -1.561e-5
-0.686, -1.560e-5
-0.687, -1.561e-5
-0.688, -1.560e-5
-0.689, -1.561e-5
-0.690, -1.561e-5
-0.691, -1.561e-5
-0.692, -1.562e-5
-0.693, -1.561e-5
-0.694, -1.560e-5
-0.695, -1.561e-5
-0.696, -1.560e-5
-0.697, -1.561e-5
-0.698, -1.560e-5
-0.699, -1.560e-5
-0.700, -1.561e-5
-0.701, -1.560e-5
-0.702, -1.560e-5
-0.703, -1.560e-5
-0.704, -1.559e-5
-0.705, -1.560e-5
-0.706, -1.560e-5
-0.707, -1.561e-5
-0.708, -1.561e-5
-0.709, -1.561e-5
-0.710, -1.562e-5
-0.711, -1.562e-5
-0.712, -1.564e-5
-0.713, -1.564e-5
-0.714, -1.564e-5
-0.715, -1.565e-5
-0.716, -1.566e-5
-0.717, -1.567e-5
-0.718, -1.566e-5
-0.719, -1.567e-5
-0.720, -1.566e-5
-0.721, -1.566e-5
-0.722, -1.567e-5
-0.723, -1.566e-5
-0.724, -1.567e-5
-0.725, -1.568e-5
-0.726, -1.568e-5
-0.727, -1.570e-5
-0.728, -1.570e-5
-0.729, -1.571e-5
-0.730, -1.573e-5
-0.731, -1.574e-5
-0.732, -1.577e-5
-0.733, -1.577e-5
-0.734, -1.579e-5
-0.735, -1.580e-5
-0.736, -1.581e-5
-0.737, -1.582e-5
-0.738, -1.582e-5
-0.739, -1.583e-5
-0.740, -1.584e-5
-0.741, -1.585e-5
-0.742, -1.587e-5
-0.743, -1.587e-5
-0.744, -1.589e-5
-0.745, -1.591e-5
-0.746, -1.592e-5
-0.747, -1.594e-5
-0.748, -1.595e-5
-0.749, -1.598e-5
-0.750, -1.600e-5
-0.751, -1.602e-5
-0.752, -1.605e-5
-0.753, -1.607e-5
-0.754, -1.609e-5
-0.755, -1.610e-5
-0.756, -1.612e-5
-0.757, -1.614e-5
-0.758, -1.615e-5
-0.759, -1.617e-5
-0.760, -1.619e-5
-0.761, -1.620e-5
-0.762, -1.622e-5
-0.763, -1.623e-5
-0.764, -1.625e-5
-0.765, -1.628e-5
-0.766, -1.629e-5
-0.767, -1.633e-5
-0.768, -1.635e-5
-0.769, -1.639e-5
-0.770, -1.642e-5
-0.771, -1.644e-5
-0.772, -1.647e-5
-0.773, -1.649e-5
-0.774, -1.652e-5
-0.775, -1.655e-5
-0.776, -1.657e-5
-0.777, -1.660e-5
-0.778, -1.662e-5
-0.779, -1.665e-5
-0.780, -1.668e-5
-0.781, -1.671e-5
-0.782, -1.675e-5
-0.783, -1.678e-5
-0.784, -1.681e-5
-0.785, -1.685e-5
-0.786, -1.688e-5
-0.787, -1.692e-5
-0.788, -1.695e-5
-0.789, -1.699e-5
-0.790, -1.703e-5
-0.791, -1.707e-5
-0.792, -1.712e-5
-0.793, -1.716e-5
-0.794, -1.720e-5
-0.795, -1.724e-5
-0.796, -1.729e-5
-0.797, -1.734e-5
-0.798, -1.738e-5
-0.799, -1.744e-5
-0.800, -1.748e-5
-0.801, -1.753e-5
-0.802, -1.759e-5
-0.803, -1.764e-5
-0.804, -1.770e-5
-0.805, -1.776e-5
-0.806, -1.781e-5
-0.807, -1.789e-5
-0.808, -1.795e-5
-0.809, -1.802e-5
-0.810, -1.809e-5
-0.811, -1.816e-5
-0.812, -1.824e-5
-0.813, -1.831e-5
-0.814, -1.839e-5
-0.815, -1.847e-5
-0.816, -1.856e-5
-0.817, -1.865e-5
-0.818, -1.873e-5
-0.819, -1.881e-5
-0.820, -1.892e-5
-0.821, -1.902e-5
-0.822, -1.914e-5
-0.823, -1.923e-5
-0.824, -1.936e-5
-0.825, -1.947e-5
-0.826, -1.958e-5
-0.827, -1.971e-5
-0.828, -1.983e-5
-0.829, -1.996e-5
-0.830, -2.010e-5
-0.831, -2.023e-5
-0.832, -2.037e-5
-0.833, -2.052e-5
-0.834, -2.069e-5
-0.835, -2.084e-5
-0.836, -2.101e-5
-0.837, -2.119e-5
-0.838, -2.134e-5
-0.839, -2.152e-5
-0.840, -2.170e-5
-0.841, -2.189e-5
-0.842, -2.209e-5
-0.843, -2.227e-5
-0.844, -2.250e-5
-0.845, -2.271e-5
-0.846, -2.292e-5
-0.847, -2.314e-5
-0.848, -2.335e-5
-0.849, -2.358e-5
-0.850, -2.381e-5
-0.851, -2.404e-5
-0.852, -2.428e-5
-0.853, -2.452e-5
-0.854, -2.478e-5
-0.855, -2.502e-5
-0.856, -2.529e-5
-0.857, -2.555e-5
-0.858, -2.580e-5
-0.859, -2.610e-5
-0.860, -2.638e-5
-0.861, -2.667e-5
-0.862, -2.697e-5
-0.863, -2.726e-5
-0.864, -2.758e-5
-0.865, -2.787e-5
-0.866, -2.819e-5
-0.867, -2.853e-5
-0.868, -2.883e-5
-0.869, -2.918e-5
-0.870, -2.948e-5
-0.871, -2.983e-5
-0.872, -3.019e-5
-0.873, -3.052e-5
-0.874, -3.091e-5
-0.875, -3.124e-5
-0.876, -3.163e-5
-0.877, -3.200e-5
-0.878, -3.237e-5
-0.879, -3.277e-5
-0.880, -3.314e-5
-0.881, -3.353e-5
-0.882, -3.394e-5
-0.883, -3.428e-5
-0.884, -3.475e-5
-0.885, -3.516e-5
-0.886, -3.558e-5
-0.887, -3.601e-5
-0.888, -3.643e-5
-0.889, -3.691e-5
-0.890, -3.733e-5
-0.891, -3.780e-5
-0.892, -3.827e-5
-0.893, -3.873e-5
-0.894, -3.924e-5
-0.895, -3.970e-5
-0.896, -4.026e-5
-0.897, -4.073e-5
-0.898, -4.119e-5
-0.899, -4.171e-5
-0.900, -4.222e-5
-0.901, -4.275e-5
-0.902, -4.329e-5
-0.903, -4.381e-5
-0.904, -4.440e-5
-0.905, -4.491e-5
-0.906, -4.547e-5
-0.907, -4.605e-5
-0.908, -4.658e-5
-0.909, -4.717e-5
-0.910, -4.773e-5
-0.911, -4.836e-5
-0.912, -4.895e-5
-0.913, -4.954e-5
-0.914, -5.018e-5
-0.915, -5.075e-5
-0.916, -5.139e-5
-0.917, -5.204e-5
-0.918, -5.265e-5
-0.919, -5.334e-5
-0.920, -5.396e-5
-0.921, -5.468e-5
-0.922, -5.537e-5
-0.923, -5.602e-5
-0.924, -5.671e-5
-0.925, -5.736e-5
-0.926, -5.807e-5
-0.927, -5.876e-5
-0.928, -5.942e-5
-0.929, -6.018e-5
-0.930, -6.083e-5
-0.931, -6.156e-5
-0.932, -6.227e-5
-0.933, -6.296e-5
-0.934, -6.367e-5
-0.935, -6.435e-5
-0.936, -6.510e-5
-0.937, -6.583e-5
-0.938, -6.650e-5
-0.939, -6.725e-5
-0.940, -6.795e-5
-0.941, -6.870e-5
-0.942, -6.940e-5
-0.943, -7.012e-5
-0.944, -7.088e-5
-0.945, -7.160e-5
-0.946, -7.235e-5
-0.947, -7.313e-5
-0.948, -7.380e-5
-0.949, -7.455e-5
-0.950, -7.518e-5
-0.951, -7.590e-5
-0.952, -7.659e-5
-0.953, -7.724e-5
-0.954, -7.796e-5
-0.955, -7.859e-5
-0.956, -7.932e-5
-0.957, -7.999e-5
-0.958, -8.062e-5
-0.959, -8.132e-5
-0.960, -8.182e-5
-0.961, -8.256e-5
-0.962, -8.318e-5
-0.963, -8.378e-5
-0.964, -8.443e-5
-0.965, -8.502e-5
-0.966, -8.562e-5
-0.967, -8.627e-5
-0.968, -8.679e-5
-0.969, -8.738e-5
-0.970, -8.791e-5
-0.971, -8.849e-5
-0.972, -8.904e-5
-0.973, -8.953e-5
-0.974, -9.009e-5
-0.975, -9.053e-5
-0.976, -9.107e-5
-0.977, -9.156e-5
-0.978, -9.200e-5
-0.979, -9.249e-5
-0.980, -9.294e-5
-0.981, -9.341e-5
-0.982, -9.384e-5
-0.983, -9.426e-5
-0.984, -9.472e-5
-0.985, -9.508e-5
-0.986, -9.548e-5
-0.987, -9.587e-5
-0.988, -9.625e-5
-0.989, -9.665e-5
-0.990, -9.698e-5
-0.991, -9.733e-5
-0.992, -9.764e-5
-0.993, -9.794e-5
-0.994, -9.830e-5
-0.995, -9.855e-5
-0.996, -9.888e-5
-0.997, -9.916e-5
-0.998, -9.945e-5
-0.999, -9.974e-5
-1.000, -9.996e-5
-1.001, -1.002e-4
-1.002, -1.005e-4
-1.003, -1.007e-4
-1.004, -1.010e-4
-1.005, -1.011e-4
-1.006, -1.014e-4
-1.007, -1.016e-4
-1.008, -1.018e-4
-1.009, -1.020e-4
-1.010, -1.021e-4
-1.011, -1.023e-4
-1.012, -1.025e-4
-1.013, -1.026e-4
-1.014, -1.028e-4
-1.015, -1.029e-4
-1.016, -1.031e-4
-1.017, -1.032e-4
-1.018, -1.033e-4
-1.019, -1.035e-4
-1.020, -1.036e-4
-1.021, -1.037e-4
-1.022, -1.038e-4
-1.023, -1.039e-4
-1.024, -1.039e-4
-1.025, -1.041e-4
-1.026, -1.042e-4
-1.027, -1.043e-4
-1.028, -1.044e-4
-1.029, -1.045e-4
-1.030, -1.045e-4
-1.031, -1.046e-4
-1.032, -1.047e-4
-1.033, -1.047e-4
-1.034, -1.048e-4
-1.035, -1.048e-4
-1.036, -1.049e-4
-1.037, -1.049e-4
-1.038, -1.050e-4
-1.039, -1.051e-4
-1.040, -1.051e-4
-1.041, -1.051e-4
-1.042, -1.052e-4
-1.043, -1.052e-4
-1.044, -1.053e-4
-1.045, -1.053e-4
-1.046, -1.053e-4
-1.047, -1.054e-4
-1.048, -1.054e-4
-1.049, -1.055e-4
-1.050, -1.055e-4
-1.051, -1.055e-4
-1.052, -1.055e-4
-1.053, -1.055e-4
-1.054, -1.056e-4
-1.055, -1.056e-4
-1.056, -1.056e-4
-1.057, -1.056e-4
-1.058, -1.056e-4
-1.059, -1.057e-4
-1.060, -1.057e-4
-1.061, -1.057e-4
-1.062, -1.057e-4
-1.063, -1.057e-4
-1.064, -1.057e-4
-1.065, -1.057e-4
-1.066, -1.057e-4
-1.067, -1.058e-4
-1.068, -1.058e-4
-1.069, -1.058e-4
-1.070, -1.058e-4
-1.071, -1.058e-4
-1.072, -1.058e-4
-1.073, -1.058e-4
-1.074, -1.058e-4
-1.075, -1.058e-4
-1.076, -1.058e-4
-1.077, -1.058e-4
-1.078, -1.058e-4
-1.079, -1.058e-4
-1.080, -1.059e-4
-1.081, -1.059e-4
-1.082, -1.059e-4
-1.083, -1.059e-4
-1.084, -1.059e-4
-1.085, -1.059e-4
-1.086, -1.059e-4
-1.087, -1.059e-4
-1.088, -1.059e-4
-1.089, -1.059e-4
-1.090, -1.059e-4
-1.091, -1.059e-4
-1.092, -1.059e-4
-1.093, -1.059e-4
-1.094, -1.059e-4
-1.095, -1.059e-4
-1.096, -1.059e-4
-1.097, -1.059e-4
-1.098, -1.059e-4
-1.099, -1.060e-4
-1.100, -1.060e-4
-1.101, -1.060e-4
-1.102, -1.060e-4
-1.103, -1.060e-4
-1.104, -1.060e-4
-1.105, -1.060e-4
-1.106, -1.060e-4
-1.107, -1.060e-4
-1.108, -1.060e-4
-1.109, -1.060e-4
-1.110, -1.060e-4
-1.111, -1.060e-4
-1.112, -1.060e-4
-1.113, -1.060e-4
-1.114, -1.060e-4
-1.115, -1.061e-4
-1.116, -1.061e-4
-1.117, -1.061e-4
-1.118, -1.061e-4
-1.119, -1.061e-4
-1.120, -1.061e-4
-1.121, -1.061e-4
-1.122, -1.061e-4
-1.123, -1.061e-4
-1.124, -1.062e-4
-1.125, -1.062e-4
-1.126, -1.062e-4
-1.127, -1.062e-4
-1.128, -1.062e-4
-1.129, -1.062e-4
-1.130, -1.062e-4
-1.131, -1.063e-4
-1.132, -1.063e-4
-1.133, -1.063e-4
-1.134, -1.063e-4
-1.135, -1.064e-4
-1.136, -1.064e-4
-1.137, -1.064e-4
-1.138, -1.065e-4
-1.139, -1.065e-4
-1.140, -1.065e-4
-1.141, -1.066e-4
-1.142, -1.066e-4
-1.143, -1.066e-4
-1.144, -1.066e-4
-1.145, -1.067e-4
-1.146, -1.067e-4
-1.147, -1.067e-4
-1.148, -1.067e-4
-1.149, -1.068e-4
-1.150, -1.068e-4
-1.151, -1.069e-4
-1.152, -1.069e-4
-1.153, -1.070e-4
-1.154, -1.070e-4
-1.155, -1.071e-4
-1.156, -1.071e-4
-1.157, -1.072e-4
-1.158, -1.072e-4
-1.159, -1.073e-4
-1.160, -1.073e-4
-1.161, -1.074e-4
-1.162, -1.074e-4
-1.163, -1.075e-4
-1.164, -1.076e-4
-1.165, -1.076e-4
-1.166, -1.077e-4
-1.167, -1.077e-4
-1.168, -1.078e-4
-1.169, -1.079e-4
-1.170, -1.079e-4
-1.171, -1.080e-4
-1.172, -1.081e-4
-1.173, -1.082e-4
-1.174, -1.083e-4
-1.175, -1.083e-4
-1.176, -1.084e-4
-1.177, -1.085e-4
-1.178, -1.086e-4
-1.179, -1.087e-4
-1.180, -1.088e-4
-1.181, -1.089e-4
-1.182, -1.090e-4
-1.183, -1.091e-4
-1.184, -1.092e-4
-1.185, -1.093e-4
-1.186, -1.094e-4
-1.187, -1.095e-4
-1.188, -1.096e-4
-1.189, -1.097e-4
-1.190, -1.098e-4
-1.191, -1.099e-4
-1.192, -1.101e-4
-1.193, -1.102e-4
-1.194, -1.103e-4
-1.195, -1.104e-4
-1.196, -1.106e-4
-1.197, -1.107e-4
-1.198, -1.109e-4
-1.199, -1.110e-4
-1.200, -1.111e-4
-1.201, -1.113e-4
-1.202, -1.115e-4
-1.203, -1.116e-4
-1.204, -1.118e-4
-1.205, -1.119e-4
-1.206, -1.121e-4
-1.207, -1.123e-4
-1.208, -1.124e-4
-1.209, -1.126e-4
-1.210, -1.127e-4
-1.211, -1.129e-4
-1.212, -1.131e-4
-1.213, -1.133e-4
-1.214, -1.135e-4
-1.215, -1.137e-4
-1.216, -1.138e-4
-1.217, -1.140e-4
-1.218, -1.142e-4
-1.219, -1.144e-4
-1.220, -1.146e-4
-1.221, -1.148e-4
-1.222, -1.150e-4
-1.223, -1.152e-4
-1.224, -1.154e-4
-1.225, -1.156e-4
-1.226, -1.159e-4
-1.227, -1.161e-4
-1.228, -1.162e-4
-1.229, -1.164e-4
-1.230, -1.166e-4
-1.231, -1.169e-4
-1.232, -1.171e-4
-1.233, -1.173e-4
-1.234, -1.175e-4
-1.235, -1.177e-4
-1.236, -1.180e-4
-1.237, -1.182e-4
-1.238, -1.184e-4
-1.239, -1.186e-4
-1.240, -1.188e-4
-1.241, -1.190e-4
-1.242, -1.193e-4
-1.243, -1.195e-4
-1.244, -1.197e-4
-1.245, -1.199e-4
-1.246, -1.201e-4
-1.247, -1.203e-4
-1.248, -1.205e-4
-1.249, -1.208e-4
-1.250, -1.210e-4
-1.251, -1.212e-4
-1.252, -1.214e-4
-1.253, -1.216e-4
-1.254, -1.219e-4
-1.255, -1.221e-4
-1.256, -1.223e-4
-1.257, -1.225e-4
-1.258, -1.227e-4
-1.259, -1.229e-4
-1.260, -1.231e-4
-1.261, -1.233e-4
-1.262, -1.235e-4
-1.263, -1.237e-4
-1.264, -1.239e-4
-1.265, -1.241e-4
-1.266, -1.243e-4
-1.267, -1.245e-4
-1.268, -1.247e-4
-1.269, -1.249e-4
-1.270, -1.251e-4
-1.271, -1.253e-4
-1.272, -1.255e-4
-1.273, -1.256e-4
-1.274, -1.258e-4
-1.275, -1.260e-4
-1.276, -1.261e-4
-1.277, -1.263e-4
-1.278, -1.264e-4
-1.279, -1.266e-4
-1.280, -1.267e-4
-1.281, -1.269e-4
-1.282, -1.271e-4
-1.283, -1.272e-4
-1.284, -1.274e-4
-1.285, -1.275e-4
-1.286, -1.277e-4
-1.287, -1.278e-4
-1.288, -1.279e-4
-1.289, -1.281e-4
-1.290, -1.282e-4
-1.291, -1.283e-4
-1.292, -1.285e-4
-1.293, -1.286e-4
-1.294, -1.287e-4
-1.295, -1.288e-4
-1.296, -1.289e-4
-1.297, -1.290e-4
-1.298, -1.291e-4
-1.299, -1.292e-4
-1.300, -1.284e-4
-1.299, -1.273e-4
-1.298, -1.265e-4
-1.297, -1.258e-4
-1.296, -1.251e-4
-1.295, -1.245e-4
-1.294, -1.239e-4
-1.293, -1.233e-4
-1.292, -1.227e-4
-1.291, -1.222e-4
-1.290, -1.216e-4
-1.289, -1.211e-4
-1.288, -1.205e-4
-1.287, -1.200e-4
-1.286, -1.195e-4
-1.285, -1.190e-4
-1.284, -1.185e-4
-1.283, -1.179e-4
-1.282, -1.174e-4
-1.281, -1.170e-4
-1.280, -1.165e-4
-1.279, -1.160e-4
-1.278, -1.155e-4
-1.277, -1.151e-4
-1.276, -1.146e-4
-1.275, -1.141e-4
-1.274, -1.137e-4
-1.273, -1.132e-4
-1.272, -1.128e-4
-1.271, -1.124e-4
-1.270, -1.119e-4
-1.269, -1.115e-4
-1.268, -1.111e-4
-1.267, -1.106e-4
-1.266, -1.102e-4
-1.265, -1.098e-4
-1.264, -1.094e-4
-1.263, -1.090e-4
-1.262, -1.085e-4
-1.261, -1.082e-4
-1.260, -1.077e-4
-1.259, -1.073e-4
-1.258, -1.070e-4
-1.257, -1.066e-4
-1.256, -1.062e-4
-1.255, -1.058e-4
-1.254, -1.055e-4
-1.253, -1.051e-4
-1.252, -1.047e-4
-1.251, -1.044e-4
-1.250, -1.040e-4
-1.249, -1.037e-4
-1.248, -1.033e-4
-1.247, -1.030e-4
-1.246, -1.027e-4
-1.245, -1.023e-4
-1.244, -1.020e-4
-1.243, -1.017e-4
-1.242, -1.014e-4
-1.241, -1.011e-4
-1.240, -1.008e-4
-1.239, -1.005e-4
-1.238, -1.002e-4
-1.237, -9.989e-5
-1.236, -9.960e-5
-1.235, -9.931e-5
-1.234, -9.906e-5
-1.233, -9.878e-5
-1.232, -9.852e-5
-1.231, -9.827e-5
-1.230, -9.801e-5
-1.229, -9.783e-5
-1.228, -9.758e-5
-1.227, -9.734e-5
-1.226, -9.711e-5
-1.225, -9.686e-5
-1.224, -9.663e-5
-1.223, -9.639e-5
-1.222, -9.616e-5
-1.221, -9.595e-5
-1.220, -9.573e-5
-1.219, -9.553e-5
-1.218, -9.532e-5
-1.217, -9.511e-5
-1.216, -9.495e-5
-1.215, -9.474e-5
-1.214, -9.456e-5
-1.213, -9.439e-5
-1.212, -9.420e-5
-1.211, -9.404e-5
-1.210, -9.387e-5
-1.209, -9.370e-5
-1.208, -9.354e-5
-1.207, -9.336e-5
-1.206, -9.321e-5
-1.205, -9.303e-5
-1.204, -9.287e-5
-1.203, -9.271e-5
-1.202, -9.257e-5
-1.201, -9.244e-5
-1.200, -9.228e-5
-1.199, -9.215e-5
-1.198, -9.202e-5
-1.197, -9.189e-5
-1.196, -9.176e-5
-1.195, -9.163e-5
-1.194, -9.151e-5
-1.193, -9.139e-5
-1.192, -9.126e-5
-1.191, -9.116e-5
-1.190, -9.104e-5
-1.189, -9.094e-5
-1.188, -9.083e-5
-1.187, -9.072e-5
-1.186, -9.063e-5
-1.185, -9.052e-5
-1.184, -9.043e-5
-1.183, -9.033e-5
-1.182, -9.022e-5
-1.181, -9.014e-5
-1.180, -9.003e-5
-1.179, -8.995e-5
-1.178, -8.986e-5
-1.177, -8.976e-5
-1.176, -8.968e-5
-1.175, -8.959e-5
-1.174, -8.952e-5
-1.173, -8.944e-5
-1.172, -8.935e-5
-1.171, -8.928e-5
-1.170, -8.921e-5
-1.169, -8.914e-5
-1.168, -8.907e-5
-1.167, -8.900e-5
-1.166, -8.893e-5
-1.165, -8.888e-5
-1.164, -8.880e-5
-1.163, -8.873e-5
-1.162, -8.866e-5
-1.161, -8.860e-5
-1.160, -8.854e-5
-1.159, -8.848e-5
-1.158, -8.843e-5
-1.157, -8.837e-5
-1.156, -8.832e-5
-1.155, -8.826e-5
-1.154, -8.820e-5
-1.153, -8.815e-5
-1.152, -8.808e-5
-1.151, -8.804e-5
-1.150, -8.798e-5
-1.149, -8.792e-5
-1.148, -8.787e-5
-1.147, -8.781e-5
-1.146, -8.778e-5
-1.145, -8.773e-5
-1.144, -8.769e-5
-1.143, -8.765e-5
-1.142, -8.760e-5
-1.141, -8.758e-5
-1.140, -8.753e-5
-1.139, -8.750e-5
-1.138, -8.746e-5
-1.137, -8.741e-5
-1.136, -8.737e-5
-1.135, -8.732e-5
-1.134, -8.728e-5
-1.133, -8.723e-5
-1.132, -8.717e-5
-1.131, -8.714e-5
-1.130, -8.709e-5
-1.129, -8.706e-5
-1.128, -8.703e-5
-1.127, -8.697e-5
-1.126, -8.695e-5
-1.125, -8.691e-5
-1.124, -8.687e-5
-1.123, -8.685e-5
-1.122, -8.681e-5
-1.121, -8.679e-5
-1.120, -8.674e-5
-1.119, -8.670e-5
-1.118, -8.667e-5
-1.117, -8.663e-5
-1.116, -8.660e-5
-1.115, -8.656e-5
-1.114, -8.654e-5
-1.113, -8.649e-5
-1.112, -8.646e-5
-1.111, -8.642e-5
-1.110, -8.638e-5
-1.109, -8.636e-5
-1.108, -8.633e-5
-1.107, -8.628e-5
-1.106, -8.625e-5
-1.105, -8.621e-5
-1.104, -8.618e-5
-1.103, -8.615e-5
-1.102, -8.611e-5
-1.101, -8.608e-5
-1.100, -8.604e-5
-1.099, -8.600e-5
-1.098, -8.598e-5
-1.097, -8.594e-5
-1.096, -8.591e-5
-1.095, -8.587e-5
-1.094, -8.584e-5
-1.093, -8.580e-5
-1.092, -8.575e-5
-1.091, -8.571e-5
-1.090, -8.566e-5
-1.089, -8.562e-5
-1.088, -8.559e-5
-1.087, -8.553e-5
-1.086, -8.549e-5
-1.085, -8.544e-5
-1.084, -8.538e-5
-1.083, -8.534e-5
-1.082, -8.529e-5
-1.081, -8.525e-5
-1.080, -8.519e-5
-1.079, -8.515e-5
-1.078, -8.511e-5
-1.077, -8.506e-5
-1.076, -8.502e-5
-1.075, -8.496e-5
-1.074, -8.491e-5
-1.073, -8.485e-5
-1.072, -8.478e-5
-1.071, -8.472e-5
-1.070, -8.465e-5
-1.069, -8.460e-5
-1.068, -8.453e-5
-1.067, -8.445e-5
-1.066, -8.439e-5
-1.065, -8.432e-5
-1.064, -8.426e-5
-1.063, -8.420e-5
-1.062, -8.413e-5
-1.061, -8.408e-5
-1.060, -8.399e-5
-1.059, -8.392e-5
-1.058, -8.386e-5
-1.057, -8.376e-5
-1.056, -8.370e-5
-1.055, -8.360e-5
-1.054, -8.351e-5
-1.053, -8.342e-5
-1.052, -8.330e-5
-1.051, -8.322e-5
-1.050, -8.310e-5
-1.049, -8.300e-5
-1.048, -8.290e-5
-1.047, -8.278e-5
-1.046, -8.269e-5
-1.045, -8.257e-5
-1.044, -8.246e-5
-1.043, -8.234e-5
-1.042, -8.221e-5
-1.041, -8.209e-5
-1.040, -8.196e-5
-1.039, -8.182e-5
-1.038, -8.168e-5
-1.037, -8.154e-5
-1.036, -8.140e-5
-1.035, -8.123e-5
-1.034, -8.108e-5
-1.033, -8.090e-5
-1.032, -8.072e-5
-1.031, -8.055e-5
-1.030, -8.036e-5
-1.029, -8.019e-5
-1.028, -7.998e-5
-1.027, -7.978e-5
-1.026, -7.957e-5
-1.025, -7.935e-5
-1.024, -7.921e-5
-1.023, -7.893e-5
-1.022, -7.870e-5
-1.021, -7.847e-5
-1.020, -7.819e-5
-1.019, -7.796e-5
-1.018, -7.769e-5
-1.017, -7.741e-5
-1.016, -7.714e-5
-1.015, -7.682e-5
-1.014, -7.655e-5
-1.013, -7.622e-5
-1.012, -7.592e-5
-1.011, -7.564e-5
-1.010, -7.526e-5
-1.009, -7.493e-5
-1.008, -7.458e-5
-1.007, -7.419e-5
-1.006, -7.385e-5
-1.005, -7.345e-5
-1.004, -7.307e-5
-1.003, -7.264e-5
-1.002, -7.225e-5
-1.001, -7.183e-5
-1.000, -7.138e-5
-0.999, -7.092e-5
-0.998, -7.043e-5
-0.997, -6.998e-5
-0.996, -6.952e-5
-0.995, -6.899e-5
-0.994, -6.853e-5
-0.993, -6.799e-5
-0.992, -6.746e-5
-0.991, -6.694e-5
-0.990, -6.637e-5
-0.989, -6.588e-5
-0.988, -6.524e-5
-0.987, -6.469e-5
-0.986, -6.414e-5
-0.985, -6.351e-5
-0.984, -6.296e-5
-0.983, -6.226e-5
-0.982, -6.167e-5
-0.981, -6.104e-5
-0.980, -6.035e-5
-0.979, -5.972e-5
-0.978, -5.901e-5
-0.977, -5.834e-5
-0.976, -5.766e-5
-0.975, -5.690e-5
-0.974, -5.625e-5
-0.973, -5.554e-5
-0.972, -5.479e-5
-0.971, -5.408e-5
-0.970, -5.331e-5
-0.969, -5.264e-5
-0.968, -5.187e-5
-0.967, -5.112e-5
-0.966, -5.042e-5
-0.965, -4.962e-5
-0.964, -4.888e-5
-0.963, -4.810e-5
-0.962, -4.733e-5
-0.961, -4.659e-5
-0.960, -4.585e-5
-0.959, -4.507e-5
-0.958, -4.424e-5
-0.957, -4.348e-5
-0.956, -4.273e-5
-0.955, -4.190e-5
-0.954, -4.118e-5
-0.953, -4.040e-5
-0.952, -3.966e-5
-0.951, -3.889e-5
-0.950, -3.811e-5
-0.949, -3.740e-5
-0.948, -3.666e-5
-0.947, -3.584e-5
-0.946, -3.517e-5
-0.945, -3.443e-5
-0.944, -3.378e-5
-0.943, -3.302e-5
-0.942, -3.231e-5
-0.941, -3.165e-5
-0.940, -3.091e-5
-0.939, -3.027e-5
-0.938, -2.955e-5
-0.937, -2.889e-5
-0.936, -2.827e-5
-0.935, -2.758e-5
-0.934, -2.705e-5
-0.933, -2.640e-5
-0.932, -2.576e-5
-0.931, -2.520e-5
-0.930, -2.458e-5
-0.929, -2.406e-5
-0.928, -2.347e-5
-0.927, -2.290e-5
-0.926, -2.239e-5
-0.925, -2.185e-5
-0.924, -2.135e-5
-0.923, -2.082e-5
-0.922, -2.029e-5
-0.921, -1.982e-5
-0.920, -1.933e-5
-0.919, -1.890e-5
-0.918, -1.844e-5
-0.917, -1.802e-5
-0.916, -1.760e-5
-0.915, -1.715e-5
-0.914, -1.678e-5
-0.913, -1.636e-5
-0.912, -1.600e-5
-0.911, -1.563e-5
-0.910, -1.526e-5
-0.909, -1.500e-5
-0.908, -1.461e-5
-0.907, -1.431e-5
-0.906, -1.401e-5
-0.905, -1.367e-5
-0.904, -1.340e-5
-0.903, -1.311e-5
-0.902, -1.284e-5
-0.901, -1.258e-5
-0.900, -1.231e-5
-0.899, -1.210e-5
-0.898, -1.184e-5
-0.897, -1.163e-5
-0.896, -1.140e-5
-0.895, -1.119e-5
-0.894, -1.101e-5
-0.893, -1.083e-5
-0.892, -1.063e-5
-0.891, -1.048e-5
-0.890, -1.030e-5
-0.889, -1.016e-5
-0.888, -1.002e-5
-0.887, -9.871e-6
-0.886, -9.758e-6
-0.885, -9.641e-6
-0.884, -9.538e-6
-0.883, -9.434e-6
-0.882, -9.325e-6
-0.881, -9.242e-6
-0.880, -9.134e-6
-0.879, -9.064e-6
-0.878, -8.973e-6
-0.877, -8.911e-6
-0.876, -8.846e-6
-0.875, -8.765e-6
-0.874, -8.721e-6
-0.873, -8.660e-6
-0.872, -8.615e-6
-0.871, -8.570e-6
-0.870, -8.514e-6
-0.869, -8.485e-6
-0.868, -8.437e-6
-0.867, -8.398e-6
-0.866, -8.381e-6
-0.865, -8.332e-6
-0.864, -8.315e-6
-0.863, -8.285e-6
-0.862, -8.260e-6
-0.861, -8.242e-6
-0.860, -8.195e-6
-0.859, -8.180e-6
-0.858, -8.157e-6
-0.857, -8.129e-6
-0.856, -8.112e-6
-0.855, -8.069e-6
-0.854, -8.059e-6
-0.853, -8.033e-6
-0.852, -8.000e-6
-0.851, -7.986e-6
-0.850, -7.956e-6
-0.849, -7.949e-6
-0.848, -7.926e-6
-0.847, -7.902e-6
-0.846, -7.902e-6
-0.845, -7.863e-6
-0.844, -7.856e-6
-0.843, -7.837e-6
-0.842, -7.818e-6
-0.841, -7.813e-6
-0.840, -7.790e-6
-0.839, -7.778e-6
-0.838, -7.766e-6
-0.837, -7.747e-6
-0.836, -7.736e-6
-0.835, -7.713e-6
-0.834, -7.707e-6
-0.833, -7.691e-6
-0.832, -7.685e-6
-0.831, -7.674e-6
-0.830, -7.654e-6
-0.829, -7.651e-6
-0.828, -7.632e-6
-0.827, -7.621e-6
-0.826, -7.621e-6
-0.825, -7.607e-6
-0.824, -7.601e-6
-0.823, -7.596e-6
-0.822, -7.589e-6
-0.821, -7.598e-6
-0.820, -7.578e-6
-0.819, -7.595e-6
-0.818, -7.585e-6
-0.817, -7.573e-6
-0.816, -7.586e-6
-0.815, -7.573e-6
-0.814, -7.580e-6
-0.813, -7.583e-6
-0.812, -7.580e-6
-0.811, -7.584e-6
-0.810, -7.588e-6
-0.809, -7.599e-6
-0.808, -7.604e-6
-0.807, -7.615e-6
-0.806, -7.633e-6
-0.805, -7.641e-6
-0.804, -7.648e-6
-0.803, -7.660e-6
-0.802, -7.669e-6
-0.801, -7.689e-6
-0.800, -7.697e-6
-0.799, -7.716e-6
-0.798, -7.729e-6
-0.797, -7.739e-6
-0.796, -7.752e-6
-0.795, -7.754e-6
-0.794, -7.767e-6
-0.793, -7.784e-6
-0.792, -7.799e-6
-0.791, -7.824e-6
-0.790, -7.832e-6
-0.789, -7.853e-6
-0.788, -7.872e-6
-0.787, -7.888e-6
-0.786, -7.914e-6
-0.785, -7.934e-6
-0.784, -7.961e-6
-0.783, -7.985e-6
-0.782, -8.004e-6
-0.781, -8.036e-6
-0.780, -8.041e-6
-0.779, -8.061e-6
-0.778, -8.086e-6
-0.777, -8.096e-6
-0.776, -8.122e-6
-0.775, -8.128e-6
-0.774, -8.141e-6
-0.773, -8.160e-6
-0.772, -8.163e-6
-0.771, -8.185e-6
-0.770, -8.200e-6
-0.769, -8.217e-6
-0.768, -8.240e-6
-0.767, -8.243e-6
-0.766, -8.266e-6
-0.765, -8.276e-6
-0.764, -8.297e-6
-0.763, -8.318e-6
-0.762, -8.339e-6
-0.761, -8.364e-6
-0.760, -8.371e-6
-0.759, -8.386e-6
-0.758, -8.402e-6
-0.757, -8.413e-6
-0.756, -8.436e-6
-0.755, -8.445e-6
-0.754, -8.457e-6
-0.753, -8.471e-6
-0.752, -8.472e-6
-0.751, -8.488e-6
-0.750, -8.490e-6
-0.749, -8.508e-6
-0.748, -8.517e-6
-0.747, -8.528e-6
-0.746, -8.554e-6
-0.745, -8.561e-6
-0.744, -8.583e-6
-0.743, -8.589e-6
-0.742, -8.596e-6
-0.741, -8.617e-6
-0.740, -8.624e-6
-0.739, -8.644e-6
-0.738, -8.669e-6
-0.737, -8.680e-6
-0.736, -8.703e-6
-0.735, -8.701e-6
-0.734, -8.709e-6
-0.733, -8.721e-6
-0.732, -8.716e-6
-0.731, -8.734e-6
-0.730, -8.740e-6
-0.729, -8.749e-6
-0.728, -8.754e-6
-0.727, -8.757e-6
-0.726, -8.773e-6
-0.725, -8.775e-6
-0.724, -8.789e-6
-0.723, -8.805e-6
-0.722, -8.814e-6
-0.721, -8.833e-6
-0.720, -8.839e-6
-0.719, -8.849e-6
-0.718, -8.852e-6
-0.717, -8.846e-6
-0.716, -8.861e-6
-0.715, -8.855e-6
-0.714, -8.862e-6
-0.713, -8.865e-6
-0.712, -8.865e-6
-0.711, -8.873e-6
-0.710, -8.872e-6
-0.709, -8.884e-6
-0.708, -8.896e-6
-0.707, -8.896e-6
-0.706, -8.912e-6
-0.705, -8.914e-6
-0.704, -8.933e-6
-0.703, -8.937e-6
-0.702, -8.940e-6
-0.701, -8.952e-6
-0.700, -8.950e-6
-0.699, -8.952e-6
-0.698, -8.958e-6
-0.697, -8.957e-6
-0.696, -8.966e-6
-0.695, -8.960e-6
-0.694, -8.971e-6
-0.693, -8.978e-6
-0.692, -8.977e-6
-0.691, -8.979e-6
-0.690, -8.983e-6
-0.689, -8.989e-6
-0.688, -8.997e-6
-0.687, -8.991e-6
-0.686, -9.004e-6
-0.685, -9.005e-6
-0.684, -9.005e-6
-0.683, -9.011e-6
-0.682, -9.014e-6
-0.681, -9.026e-6
-0.680, -9.020e-6
-0.679, -9.038e-6
-0.678, -9.037e-6
-0.677, -9.036e-6
-0.676, -9.040e-6
-0.675, -9.037e-6
-0.674, -9.042e-6
-0.673, -9.047e-6
-0.672, -9.039e-6
-0.671, -9.045e-6
-0.670, -9.039e-6
-0.669, -9.046e-6
-0.668, -9.044e-6
-0.667, -9.044e-6
-0.666, -9.060e-6
-0.665, -9.052e-6
-0.664, -9.055e-6
-0.663, -9.055e-6
-0.662, -9.046e-6
-0.661, -9.055e-6
-0.660, -9.046e-6
-0.659, -9.052e-6
-0.658, -9.053e-6
-0.657, -9.046e-6
-0.656, -9.052e-6
-0.655, -9.043e-6
-0.654, -9.042e-6
-0.653, -9.051e-6
-0.652, -9.035e-6
-0.651, -9.042e-6
-0.650, -9.032e-6
-0.649, -9.032e-6
-0.648, -9.039e-6
-0.647, -9.038e-6
-0.646, -9.048e-6
-0.645, -9.049e-6
-0.644, -9.048e-6
-0.643, -9.050e-6
-0.642, -9.042e-6
-0.641, -9.047e-6
-0.640, -9.030e-6
-0.639, -9.030e-6
-0.638, -9.026e-6
-0.637, -9.017e-6
-0.636, -9.016e-6
-0.635, -8.999e-6
-0.634, -8.999e-6
-0.633, -8.993e-6
-0.632, -8.985e-6
-0.631, -8.992e-6
-0.630, -8.986e-6
-0.629, -8.992e-6
-0.628, -8.992e-6
-0.627, -8.996e-6
-0.626, -8.997e-6
-0.625, -8.992e-6
-0.624, -8.991e-6
-0.623, -8.988e-6
-0.622, -8.978e-6
-0.621, -8.980e-6
-0.620, -8.965e-6
-0.619, -8.963e-6
-0.618, -8.960e-6
-0.617, -8.950e-6
-0.616, -8.954e-6
-0.615, -8.953e-6
-0.614, -8.945e-6
-0.613, -8.941e-6
-0.612, -8.929e-6
-0.611, -8.938e-6
-0.610, -8.930e-6
-0.609, -8.927e-6
-0.608, -8.925e-6
-0.607, -8.913e-6
-0.606, -8.914e-6
-0.605, -8.900e-6
-0.604, -8.896e-6
-0.603, -8.888e-6
-0.602, -8.882e-6
-0.601, -8.875e-6
-0.600, -8.859e-6
-0.599, -8.853e-6
-0.598, -8.852e-6
-0.597, -8.843e-6
-0.596, -8.843e-6
-0.595, -8.828e-6
-0.594, -8.825e-6
-0.593, -8.817e-6
-0.592, -8.809e-6
-0.591, -8.806e-6
-0.590, -8.798e-6
-0.589, -8.790e-6
-0.588, -8.787e-6
-0.587, -8.772e-6
-0.586, -8.776e-6
-0.585, -8.761e-6
-0.584, -8.755e-6
-0.583, -8.749e-6
-0.582, -8.743e-6
-0.581, -8.745e-6
-0.580, -8.732e-6
-0.579, -8.728e-6
-0.578, -8.720e-6
-0.577, -8.700e-6
-0.576, -8.709e-6
-0.575, -8.686e-6
-0.574, -8.686e-6
-0.573, -8.683e-6
-0.572, -8.673e-6
-0.571, -8.672e-6
-0.570, -8.663e-6
-0.569, -8.660e-6
-0.568, -8.654e-6
-0.567, -8.639e-6
-0.566, -8.639e-6
-0.565, -8.628e-6
-0.564, -8.621e-6
-0.563, -8.612e-6
-0.562, -8.597e-6
-0.561, -8.592e-6
-0.560, -8.575e-6
-0.559, -8.567e-6
-0.558, -8.560e-6
-0.557, -8.547e-6
-0.556, -8.542e-6
-0.555, -8.525e-6
-0.554, -8.521e-6
-0.553, -8.508e-6
-0.552, -8.501e-6
-0.551, -8.500e-6
-0.550, -8.484e-6
-0.549, -8.476e-6
-0.548, -8.461e-6
-0.547, -8.442e-6
-0.546, -8.442e-6
-0.545, -8.421e-6
-0.544, -8.416e-6
-0.543, -8.405e-6
-0.542, -8.392e-6
-0.541, -8.392e-6
-0.540, -8.375e-6
-0.539, -8.370e-6
-0.538, -8.352e-6
-0.537, -8.341e-6
-0.536, -8.342e-6
-0.535, -8.322e-6
-0.534, -8.319e-6
-0.533, -8.312e-6
-0.532, -8.298e-6
-0.531, -8.291e-6
-0.530, -8.273e-6
-0.529, -8.266e-6
-0.528, -8.260e-6
-0.527, -8.248e-6
-0.526, -8.247e-6
-0.525, -8.237e-6
-0.524, -8.221e-6
-0.523, -8.212e-6
-0.522, -8.202e-6
-0.521, -8.201e-6
-0.520, -8.189e-6
-0.519, -8.182e-6
-0.518, -8.175e-6
-0.517, -8.160e-6
-0.516, -8.154e-6
-0.515, -8.137e-6
-0.514, -8.132e-6
-0.513, -8.120e-6
-0.512, -8.094e-6
-0.511, -8.088e-6
-0.510, -8.066e-6
-0.509, -8.061e-6
-0.508, -8.045e-6
-0.507, -8.027e-6
-0.506, -8.024e-6
-0.505, -8.005e-6
-0.504, -7.994e-6
-0.503, -7.982e-6
-0.502, -7.968e-6
-0.501, -7.964e-6
-0.500, -7.945e-6
-0.499, -7.947e-6
-0.498, -7.928e-6
-0.497, -7.913e-6
-0.496, -7.908e-6
-0.495, -7.886e-6
-0.494, -7.876e-6
-0.493, -7.864e-6
-0.492, -7.842e-6
-0.491, -7.835e-6
-0.490, -7.819e-6
-0.489, -7.806e-6
-0.488, -7.796e-6
-0.487, -7.770e-6
-0.486, -7.763e-6
-0.485, -7.749e-6
-0.484, -7.740e-6
-0.483, -7.725e-6
-0.482, -7.713e-6
-0.481, -7.704e-6
-0.480, -7.690e-6
-0.479, -7.678e-6
-0.478, -7.661e-6
-0.477, -7.649e-6
-0.476, -7.635e-6
-0.475, -7.614e-6
-0.474, -7.611e-6
-0.473, -7.594e-6
-0.472, -7.575e-6
-0.471, -7.566e-6
-0.470, -7.547e-6
-0.469, -7.541e-6
-0.468, -7.526e-6
-0.467, -7.509e-6
-0.466, -7.501e-6
-0.465, -7.477e-6
-0.464, -7.468e-6
-0.463, -7.450e-6
-0.462, -7.430e-6
-0.461, -7.423e-6
-0.460, -7.398e-6
-0.459, -7.383e-6
-0.458, -7.369e-6
-0.457, -7.345e-6
-0.456, -7.337e-6
-0.455, -7.313e-6
-0.454, -7.303e-6
-0.453, -7.286e-6
-0.452, -7.264e-6
-0.451, -7.253e-6
-0.450, -7.232e-6
-0.449, -7.218e-6
-0.448, -7.211e-6
-0.447, -7.180e-6
-0.446, -7.168e-6
-0.445, -7.148e-6
-0.444, -7.127e-6
-0.443, -7.107e-6
-0.442, -7.082e-6
-0.441, -7.064e-6
-0.440, -7.039e-6
-0.439, -7.021e-6
-0.438, -7.005e-6
-0.437, -6.985e-6
-0.436, -6.966e-6
-0.435, -6.937e-6
-0.434, -6.928e-6
-0.433, -6.908e-6
-0.432, -6.886e-6
-0.431, -6.868e-6
-0.430, -6.842e-6
-0.429, -6.829e-6
-0.428, -6.804e-6
-0.427, -6.777e-6
-0.426, -6.761e-6
-0.425, -6.728e-6
-0.424, -6.713e-6
-0.423, -6.691e-6
-0.422, -6.668e-6
-0.421, -6.658e-6
-0.420, -6.629e-6
-0.419, -6.614e-6
-0.418, -6.591e-6
-0.417, -6.568e-6
-0.416, -6.554e-6
-0.415, -6.525e-6
-0.414, -6.509e-6
-0.413, -6.484e-6
-0.412, -6.453e-6
-0.411, -6.433e-6
-0.410, -6.427e-6
-0.409, -6.396e-6
-0.408, -6.363e-6
-0.407, -6.331e-6
-0.406, -6.314e-6
-0.405, -6.286e-6
-0.404, -6.262e-6
-0.403, -6.237e-6
-0.402, -6.209e-6
-0.401, -6.193e-6
-0.400, -6.168e-6
-0.399, -6.149e-6
-0.398, -6.124e-6
-0.397, -6.106e-6
-0.396, -6.085e-6
-0.395, -6.052e-6
-0.394, -6.033e-6
-0.393, -6.008e-6
-0.392, -5.983e-6
-0.391, -5.961e-6
-0.390, -5.929e-6
-0.389, -5.913e-6
-0.388, -5.884e-6
-0.387, -5.854e-6
-0.386, -5.840e-6
-0.385, -5.808e-6
-0.384, -5.777e-6
-0.383, -5.751e-6
-0.382, -5.722e-6
-0.381, -5.705e-6
-0.380, -5.670e-6
-0.379, -5.649e-6
-0.378, -5.622e-6
-0.377, -5.591e-6
-0.376, -5.572e-6
-0.375, -5.537e-6
-0.374, -5.513e-6
-0.373, -5.490e-6
-0.372, -5.459e-6
-0.371, -5.447e-6
-0.370, -5.412e-6
-0.369, -5.387e-6
-0.368, -5.360e-6
-0.367, -5.328e-6
-0.366, -5.308e-6
-0.365, -5.278e-6
-0.364, -5.254e-6
-0.363, -5.228e-6
-0.362, -5.203e-6
-0.361, -5.184e-6
-0.360, -5.150e-6
-0.359, -5.128e-6
-0.358, -5.096e-6
-0.357, -5.066e-6
-0.356, -5.040e-6
-0.355, -5.005e-6
-0.354, -4.982e-6
-0.353, -4.951e-6
-0.352, -4.918e-6
-0.351, -4.893e-6
-0.350, -4.855e-6
-0.349, -4.836e-6
-0.348, -4.808e-6
-0.347, -4.775e-6
-0.346, -4.760e-6
-0.345, -4.727e-6
-0.344, -4.703e-6
-0.343, -4.673e-6
-0.342, -4.639e-6
-0.341, -4.613e-6
-0.340, -4.577e-6
-0.339, -4.550e-6
-0.338, -4.520e-6
-0.337, -4.492e-6
-0.336, -4.468e-6
-0.335, -4.434e-6
-0.334, -4.408e-6
-0.333, -4.374e-6
-0.332, -4.343e-6
-0.331, -4.316e-6
-0.330, -4.281e-6
-0.329, -4.255e-6
-0.328, -4.229e-6
-0.327, -4.197e-6
-0.326, -4.174e-6
-0.325, -4.139e-6
-0.324, -4.112e-6
-0.323, -4.086e-6
-0.322, -4.056e-6
-0.321, -4.035e-6
-0.320, -4.008e-6
-0.319, -3.978e-6
-0.318, -3.944e-6
-0.317, -3.913e-6
-0.316, -3.887e-6
-0.315, -3.852e-6
-0.314, -3.827e-6
-0.313, -3.796e-6
-0.312, -3.761e-6
-0.311, -3.739e-6
-0.310, -3.704e-6
-0.309, -3.679e-6
-0.308, -3.647e-6
-0.307, -3.612e-6
-0.306, -3.593e-6
-0.305, -3.559e-6
-0.304, -3.536e-6
-0.303, -3.510e-6
-0.302, -3.478e-6
-0.301, -3.457e-6
-0.300, -3.415e-6
-0.299, -3.390e-6
-0.298, -3.357e-6
-0.297, -3.324e-6
-0.296, -3.298e-6
-0.295, -3.264e-6
-0.294, -3.237e-6
-0.293, -3.208e-6
-0.292, -3.171e-6
-0.291, -3.152e-6
-0.290, -3.120e-6
-0.289, -3.095e-6
-0.288, -3.070e-6
-0.287, -3.036e-6
-0.286, -3.016e-6
-0.285, -2.984e-6
-0.284, -2.956e-6
-0.283, -2.925e-6
-0.282, -2.891e-6
-0.281, -2.871e-6
-0.280, -2.835e-6
-0.279, -2.810e-6
-0.278, -2.785e-6
-0.277, -2.752e-6
-0.276, -2.724e-6
-0.275, -2.689e-6
-0.274, -2.665e-6
-0.273, -2.639e-6
-0.272, -2.610e-6
-0.271, -2.584e-6
-0.270, -2.552e-6
-0.269, -2.539e-6
-0.268, -2.504e-6
-0.267, -2.475e-6
-0.266, -2.455e-6
-0.265, -2.425e-6
-0.264, -2.400e-6
-0.263, -2.371e-6
-0.262, -2.343e-6
-0.261, -2.324e-6
-0.260, -2.291e-6
-0.259, -2.265e-6
-0.258, -2.239e-6
-0.257, -2.208e-6
-0.256, -2.187e-6
-0.255, -2.156e-6
-0.254, -2.132e-6
-0.253, -2.109e-6
-0.252, -2.075e-6
-0.251, -2.057e-6
-0.250, -2.028e-6
-0.249, -2.005e-6
-0.248, -1.980e-6
-0.247, -1.952e-6
-0.246, -1.935e-6
-0.245, -1.908e-6
-0.244, -1.882e-6
-0.243, -1.866e-6
-0.242, -1.835e-6
-0.241, -1.816e-6
-0.240, -1.789e-6
-0.239, -1.766e-6
-0.238, -1.742e-6
-0.237, -1.716e-6
-0.236, -1.696e-6
-0.235, -1.666e-6
-0.234, -1.646e-6
-0.233, -1.621e-6
-0.232, -1.596e-6
-0.231, -1.569e-6
-0.230, -1.546e-6
-0.229, -1.530e-6
-0.228, -1.508e-6
-0.227, -1.482e-6
-0.226, -1.466e-6
-0.225, -1.443e-6
-0.224, -1.425e-6
-0.223, -1.404e-6
-0.222, -1.373e-6
-0.221, -1.363e-6
-0.220, -1.328e-6
-0.219, -1.312e-6
-0.218, -1.293e-6
-0.217, -1.261e-6
-0.216, -1.243e-6
-0.215, -1.215e-6
-0.214, -1.196e-6
-0.213, -1.176e-6
-0.212, -1.147e-6
-0.211, -1.136e-6
-0.210, -1.111e-6
-0.209, -1.095e-6
-0.208, -1.076e-6
-0.207, -1.049e-6
-0.206, -1.033e-6
-0.205, -1.024e-6
-0.204, -9.942e-7
-0.203, -9.756e-7
-0.202, -9.478e-7
-0.201, -9.304e-7
-0.200, -9.022e-7
-0.199, -8.846e-7
-0.198, -8.628e-7
-0.197, -8.415e-7
-0.196, -8.258e-7
-0.195, -8.019e-7
-0.194, -7.811e-7
-0.193, -7.639e-7
-0.192, -7.431e-7
-0.191, -7.255e-7
-0.190, -7.020e-7
-0.189, -6.888e-7
-0.188, -6.673e-7
-0.187, -6.439e-7
-0.186, -6.319e-7
-0.185, -6.080e-7
-0.184, -5.884e-7
-0.183, -5.706e-7
-0.182, -5.451e-7
-0.181, -5.338e-7
-0.180, -5.066e-7
-0.179, -4.877e-7
-0.178, -4.765e-7
-0.177, -4.546e-7
-0.176, -4.420e-7
-0.175, -4.168e-7
-0.174, -4.035e-7
-0.173, -3.887e-7
-0.172, -3.654e-7
-0.171, -3.539e-7
-0.170, -3.334e-7
-0.169, -3.182e-7
-0.168, -2.988e-7
-0.167, -2.756e-7
-0.166, -2.614e-7
-0.165, -2.383e-7
-0.164, -2.229e-7
-0.163, -2.054e-7
-0.162, -1.871e-7
-0.161, -1.751e-7
-0.160, -1.555e-7
-0.159, -1.397e-7
-0.158, -1.233e-7
-0.157, -1.048e-7
-0.156, -9.149e-8
-0.155, -7.209e-8
-0.154, -5.816e-8
-0.153, -4.033e-8
-0.152, -1.859e-8
-0.151, -8.069e-9
-0.150, 1.366e-8
-0.149, 2.477e-8
-0.148, 4.446e-8
-0.147, 6.434e-8
-0.146, 7.496e-8
-0.145, 9.952e-8
-0.144, 1.102e-7
-0.143, 1.262e-7
-0.142, 1.443e-7
-0.141, 1.483e-7
-0.140, 1.738e-7
-0.139, 1.855e-7
-0.138, 2.009e-7
-0.137, 2.204e-7
-0.136, 2.269e-7
-0.135, 2.494e-7
-0.134, 2.618e-7
-0.133, 2.751e-7
-0.132, 2.971e-7
-0.131, 3.058e-7
-0.130, 3.303e-7
-0.129, 3.426e-7
-0.128, 3.640e-7
-0.127, 3.801e-7
-0.126, 3.883e-7
-0.125, 4.064e-7
-0.124, 4.238e-7
-0.123, 4.366e-7
-0.122, 4.572e-7
-0.121, 4.691e-7
-0.120, 4.891e-7
-0.119, 5.023e-7
-0.118, 5.127e-7
-0.117, 5.308e-7
-0.116, 5.394e-7
-0.115, 5.549e-7
-0.114, 5.720e-7
-0.113, 5.847e-7
-0.112, 6.060e-7
-0.111, 6.161e-7
-0.110, 6.318e-7
-0.109, 6.437e-7
-0.108, 6.622e-7
-0.107, 6.833e-7
-0.106, 6.942e-7
-0.105, 7.158e-7
-0.104, 7.276e-7
-0.103, 7.470e-7
-0.102, 7.637e-7
-0.101, 7.708e-7
-0.100, 7.930e-7
-0.099, 8.040e-7
-0.098, 8.132e-7
-0.097, 8.324e-7
-0.096, 8.403e-7
-0.095, 8.593e-7
-0.094, 8.724e-7
-0.093, 8.818e-7
-0.092, 9.045e-7
-0.091, 9.137e-7
-0.090, 9.260e-7
-0.089, 9.430e-7
-0.088, 9.573e-7
-0.087, 9.769e-7
-0.086, 9.850e-7
-0.085, 1.003e-6
-0.084, 1.018e-6
-0.083, 1.031e-6
-0.082, 1.049e-6
-0.081, 1.057e-6
-0.080, 1.076e-6
-0.079, 1.088e-6
-0.078, 1.099e-6
-0.077, 1.118e-6
-0.076, 1.123e-6
-0.075, 1.142e-6
-0.074, 1.149e-6
-0.073, 1.165e-6
-0.072, 1.184e-6
-0.071, 1.194e-6
-0.070, 1.210e-6
-0.069, 1.223e-6
-0.068, 1.238e-6
-0.067, 1.257e-6
-0.066, 1.264e-6
-0.065, 1.284e-6
-0.064, 1.285e-6
-0.063, 1.309e-6
-0.062, 1.326e-6
-0.061, 1.332e-6
-0.060, 1.351e-6
-0.059, 1.360e-6
-0.058, 1.370e-6
-0.057, 1.389e-6
-0.056, 1.394e-6
-0.055, 1.416e-6
-0.054, 1.424e-6
-0.053, 1.435e-6
-0.052, 1.454e-6
-0.051, 1.459e-6
-0.050, 1.477e-6
-0.049, 1.487e-6
-0.048, 1.500e-6
-0.047, 1.519e-6
-0.046, 1.525e-6
-0.045, 1.544e-6
-0.044, 1.555e-6
-0.043, 1.566e-6
-0.042, 1.584e-6
-0.041, 1.589e-6
-0.040, 1.606e-6
-0.039, 1.612e-6
-0.038, 1.623e-6
-0.037, 1.640e-6
-0.036, 1.647e-6
-0.035, 1.666e-6
-0.034, 1.676e-6
-0.033, 1.687e-6
-0.032, 1.703e-6
-0.031, 1.712e-6
-0.030, 1.728e-6
-0.029, 1.735e-6
-0.028, 1.750e-6
-0.027, 1.764e-6
-0.026, 1.779e-6
-0.025, 1.794e-6
-0.024, 1.800e-6
-0.023, 1.811e-6
-0.022, 1.825e-6
-0.021, 1.830e-6
-0.020, 1.847e-6
-0.019, 1.854e-6
-0.018, 1.863e-6
-0.017, 1.880e-6
-0.016, 1.886e-6
-0.015, 1.900e-6
-0.014, 1.908e-6
-0.013, 1.912e-6
-0.012, 1.933e-6
-0.011, 1.940e-6
-0.010, 1.951e-6
-0.009, 1.962e-6
-0.008, 1.970e-6
-0.007, 1.987e-6
-0.006, 1.989e-6
-0.005, 2.005e-6
-0.004, 2.016e-6
-0.003, 2.026e-6
-0.002, 2.040e-6
-0.001, 2.044e-6
-0.000, 2.039e-6
0.001, 2.061e-6
0.002, 2.070e-6
0.003, 2.082e-6
0.004, 2.091e-6
0.005, 2.104e-6
0.006, 2.108e-6
0.007, 2.119e-6
0.008, 2.136e-6
0.009, 2.141e-6
0.010, 2.158e-6
0.011, 2.164e-6
0.012, 2.175e-6
0.013, 2.185e-6
0.014, 2.190e-6
0.015, 2.205e-6
0.016, 2.210e-6
0.017, 2.221e-6
0.018, 2.233e-6
0.019, 2.233e-6
0.020, 2.251e-6
0.021, 2.260e-6
0.022, 2.264e-6
0.023, 2.277e-6
0.024, 2.282e-6
0.025, 2.304e-6
0.026, 2.309e-6
0.027, 2.313e-6
0.028, 2.328e-6
0.029, 2.331e-6
0.030, 2.342e-6
0.031, 2.351e-6
0.032, 2.355e-6
0.033, 2.372e-6
0.034, 2.376e-6
0.035, 2.389e-6
0.036, 2.395e-6
0.037, 2.405e-6
0.038, 2.410e-6
0.039, 2.418e-6
0.040, 2.431e-6
0.041, 2.438e-6
0.042, 2.445e-6
0.043, 2.455e-6
0.044, 2.462e-6
0.045, 2.475e-6
0.046, 2.479e-6
0.047, 2.487e-6
0.048, 2.500e-6
0.049, 2.507e-6
0.050, 2.520e-6
0.051, 2.523e-6
0.052, 2.534e-6
0.053, 2.546e-6
0.054, 2.549e-6
0.055, 2.561e-6
0.056, 2.567e-6
0.057, 2.574e-6
0.058, 2.586e-6
0.059, 2.588e-6
0.060, 2.603e-6
0.061, 2.607e-6
0.062, 2.613e-6
0.063, 2.628e-6
0.064, 2.623e-6
0.065, 2.644e-6
0.066, 2.650e-6
0.067, 2.658e-6
0.068, 2.674e-6
0.069, 2.677e-6
0.070, 2.688e-6
0.071, 2.696e-6
0.072, 2.708e-6
0.073, 2.718e-6
0.074, 2.721e-6
0.075, 2.734e-6
0.076, 2.742e-6
0.077, 2.755e-6
0.078, 2.762e-6
0.079, 2.766e-6
0.080, 2.780e-6
0.081, 2.787e-6
0.082, 2.792e-6
0.083, 2.804e-6
0.084, 2.809e-6
0.085, 2.822e-6
0.086, 2.826e-6
0.087, 2.836e-6
0.088, 2.849e-6
0.089, 2.850e-6
0.090, 2.863e-6
0.091, 2.870e-6
0.092, 2.880e-6
0.093, 2.897e-6
0.094, 2.898e-6
0.095, 2.911e-6
0.096, 2.917e-6
0.097, 2.929e-6
0.098, 2.940e-6
0.099, 2.939e-6
0.100, 2.957e-6
0.101, 2.962e-6
0.102, 2.974e-6
0.103, 2.984e-6
0.104, 2.989e-6
0.105, 3.005e-6
0.106, 3.009e-6
0.107, 3.017e-6
0.108, 3.033e-6
0.109, 3.037e-6
0.110, 3.048e-6
0.111, 3.054e-6
0.112, 3.058e-6
0.113, 3.072e-6
0.114, 3.073e-6
0.115, 3.079e-6
0.116, 3.091e-6
0.117, 3.099e-6
0.118, 3.112e-6
0.119, 3.118e-6
0.120, 3.131e-6
0.121, 3.142e-6
0.122, 3.148e-6
0.123, 3.163e-6
0.124, 3.168e-6
0.125, 3.183e-6
0.126, 3.187e-6
0.127, 3.194e-6
0.128, 3.213e-6
0.129, 3.213e-6
0.130, 3.225e-6
0.131, 3.232e-6
0.132, 3.239e-6
0.133, 3.253e-6
0.134, 3.255e-6
0.135, 3.268e-6
0.136, 3.272e-6
0.137, 3.282e-6
0.138, 3.294e-6
0.139, 3.295e-6
0.140, 3.308e-6
0.141, 3.311e-6
0.142, 3.319e-6
0.143, 3.334e-6
0.144, 3.335e-6
0.145, 3.348e-6
0.146, 3.353e-6
0.147, 3.359e-6
0.148, 3.376e-6
0.149, 3.377e-6
0.150, 3.390e-6
0.151, 3.395e-6
0.152, 3.402e-6
0.153, 3.411e-6
0.154, 3.413e-6
0.155, 3.425e-6
0.156, 3.430e-6
0.157, 3.439e-6
0.158, 3.448e-6
0.159, 3.452e-6
0.160, 3.464e-6
0.161, 3.473e-6
0.162, 3.480e-6
0.163, 3.494e-6
0.164, 3.497e-6
0.165, 3.513e-6
0.166, 3.511e-6
0.167, 3.520e-6
0.168, 3.533e-6
0.169, 3.536e-6
0.170, 3.546e-6
0.171, 3.550e-6
0.172, 3.557e-6
0.173, 3.570e-6
0.174, 3.573e-6
0.175, 3.585e-6
0.176, 3.590e-6
0.177, 3.602e-6
0.178, 3.612e-6
0.179, 3.622e-6
0.180, 3.637e-6
0.181, 3.642e-6
0.182, 3.648e-6
0.183, 3.660e-6
0.184, 3.663e-6
0.185, 3.676e-6
0.186, 3.681e-6
0.187, 3.688e-6
0.188, 3.702e-6
0.189, 3.701e-6
0.190, 3.715e-6
0.191, 3.721e-6
0.192, 3.720e-6
0.193, 3.738e-6
0.194, 3.740e-6
0.195, 3.754e-6
0.196, 3.760e-6
0.197, 3.770e-6
0.198, 3.779e-6
0.199, 3.785e-6
0.200, 3.796e-6
0.201, 3.805e-6
0.202, 3.810e-6
0.203, 3.823e-6
0.204, 3.824e-6
0.205, 3.827e-6
0.206, 3.838e-6
0.207, 3.851e-6
0.208, 3.866e-6
0.209, 3.868e-6
0.210, 3.884e-6
0.211, 3.887e-6
0.212, 3.897e-6
0.213, 3.909e-6
0.214, 3.912e-6
0.215, 3.928e-6
0.216, 3.934e-6
0.217, 3.942e-6
0.218, 3.952e-6
0.219, 3.957e-6
0.220, 3.975e-6
0.221, 3.985e-6
0.222, 3.993e-6
0.223, 4.007e-6
0.224, 4.013e-6
0.225, 4.031e-6
0.226, 4.038e-6
0.227, 4.045e-6
0.228, 4.065e-6
0.229, 4.072e-6
0.230, 4.094e-6
0.231, 4.107e-6
0.232, 4.118e-6
0.233, 4.134e-6
0.234, 4.142e-6
0.235, 4.158e-6
0.236, 4.169e-6
0.237, 4.183e-6
0.238, 4.200e-6
0.239, 4.211e-6
0.240, 4.231e-6
0.241, 4.245e-6
0.242, 4.262e-6
0.243, 4.271e-6
0.244, 4.285e-6
0.245, 4.310e-6
0.246, 4.322e-6
0.247, 4.342e-6
0.248, 4.364e-6
0.249, 4.377e-6
0.250, 4.402e-6
0.251, 4.414e-6
0.252, 4.439e-6
0.253, 4.463e-6
0.254, 4.479e-6
0.255, 4.507e-6
0.256, 4.523e-6
0.257, 4.551e-6
0.258, 4.577e-6
0.259, 4.597e-6
0.260, 4.631e-6
0.261, 4.651e-6
0.262, 4.675e-6
0.263, 4.710e-6
0.264, 4.732e-6
0.265, 4.769e-6
0.266, 4.796e-6
0.267, 4.828e-6
0.268, 4.866e-6
0.269, 4.881e-6
0.270, 4.930e-6
0.271, 4.962e-6
0.272, 5.001e-6
0.273, 5.043e-6
0.274, 5.076e-6
0.275, 5.124e-6
0.276, 5.162e-6
0.277, 5.211e-6
0.278, 5.252e-6
0.279, 5.290e-6
0.280, 5.346e-6
0.281, 5.397e-6
0.282, 5.451e-6
0.283, 5.498e-6
0.284, 5.551e-6
0.285, 5.615e-6
0.286, 5.666e-6
0.287, 5.734e-6
0.288, 5.790e-6
0.289, 5.855e-6
0.290, 5.929e-6
0.291, 5.992e-6
0.292, 6.075e-6
0.293, 6.146e-6
0.294, 6.203e-6
0.295, 6.295e-6
0.296, 6.367e-6
0.297, 6.466e-6
0.298, 6.550e-6
0.299, 6.636e-6
0.300, 6.746e-6
0.301, 6.823e-6
0.302, 6.935e-6
0.303, 7.039e-6
0.304, 7.136e-6
0.305, 7.266e-6
0.306, 7.356e-6
0.307, 7.509e-6
0.308, 7.636e-6
0.309, 7.768e-6
0.310, 7.908e-6
0.311, 8.033e-6
0.312, 8.189e-6
0.313, 8.328e-6
0.314, 8.473e-6
0.315, 8.639e-6
0.316, 8.799e-6
0.317, 8.982e-6
0.318, 9.151e-6
0.319, 9.325e-6
0.320, 9.491e-6
0.321, 9.693e-6
0.322, 9.913e-6
0.323, 1.011e-5
0.324, 1.033e-5
0.325, 1.058e-5
0.326, 1.078e-5
0.327, 1.103e-5
0.328, 1.128e-5
0.329, 1.154e-5
0.330, 1.182e-5
0.331, 1.206e-5
0.332, 1.240e-5
0.333, 1.274e-5
0.334, 1.301e-5
0.335, 1.335e-5
0.336, 1.362e-5
0.337, 1.402e-5
0.338, 1.435e-5
0.339, 1.468e-5
0.340, 1.511e-5
0.341, 1.546e-5
0.342, 1.590e-5
0.343, 1.628e-5
0.344, 1.670e-5
0.345, 1.718e-5
0.346, 1.754e-5
0.347, 1.808e-5
0.348, 1.858e-5
0.349, 1.905e-5
0.350, 1.963e-5
0.351, 2.016e-5
0.352, 2.075e-5
0.353, 2.133e-5
0.354, 2.189e-5
0.355, 2.255e-5
0.356, 2.311e-5
0.357, 2.388e-5
0.358, 2.446e-5
0.359, 2.515e-5
0.360, 2.591e-5
0.361, 2.661e-5
0.362, 2.744e-5
0.363, 2.815e-5
0.364, 2.899e-5
0.365, 2.978e-5
0.366, 3.060e-5
0.367, 3.162e-5
0.368, 3.241e-5
0.369, 3.336e-5
0.370, 3.437e-5
0.371, 3.509e-5
0.372, 3.626e-5
0.373, 3.721e-5
0.374, 3.825e-5
0.375, 3.946e-5
0.376, 4.035e-5
0.377, 4.171e-5
0.378, 4.267e-5
0.379, 4.384e-5
0.380, 4.517e-5
0.381, 4.619e-5
0.382, 4.761e-5
0.383, 4.881e-5
0.384, 5.035e-5
0.385, 5.159e-5
0.386, 5.279e-5
0.387, 5.421e-5
0.388, 5.540e-5
0.389, 5.676e-5
0.390, 5.838e-5
0.391, 5.950e-5
0.392, 6.116e-5
0.393, 6.252e-5
0.394, 6.403e-5
0.395, 6.544e-5
0.396, 6.682e-5
0.397, 6.822e-5
0.398, 6.972e-5
0.399, 7.129e-5
0.400, 7.279e-5
0.401, 7.425e-5
0.402, 7.588e-5
0.403, 7.713e-5
0.404, 7.874e-5
0.405, 8.030e-5
0.406, 8.153e-5
0.407, 8.333e-5
0.408, 8.439e-5
0.409, 8.575e-5
0.410, 8.603e-5
0.411, 8.790e-5
0.412, 8.981e-5
0.413, 9.083e-5
0.414, 9.255e-5
0.415, 9.393e-5
0.416, 9.478e-5
0.417, 9.659e-5
0.418, 9.747e-5
0.419, 9.880e-5
0.420, 1.001e-4
0.421, 1.008e-4
0.422, 1.021e-4
0.423, 1.029e-4
0.424, 1.040e-4
0.425, 1.052e-4
0.426, 1.059e-4
0.427, 1.071e-4
0.428, 1.078e-4
0.429, 1.085e-4
0.430, 1.096e-4
0.431, 1.101e-4
0.432, 1.109e-4
0.433, 1.115e-4
0.434, 1.121e-4
0.435, 1.130e-4
0.436, 1.132e-4
0.437, 1.139e-4
0.438, 1.140e-4
0.439, 1.146e-4
0.440, 1.149e-4
0.441, 1.150e-4
0.442, 1.155e-4
0.443, 1.155e-4
0.444, 1.156e-4
0.445, 1.159e-4
0.446, 1.158e-4
0.447, 1.161e-4
0.448, 1.156e-4
0.449, 1.160e-4
0.450, 1.160e-4
0.451, 1.156e-4
0.452, 1.157e-4
0.453, 1.156e-4
0.454, 1.154e-4
0.455, 1.153e-4
0.456, 1.149e-4
0.457, 1.148e-4
0.458, 1.145e-4
0.459, 1.143e-4
0.460, 1.140e-4
0.461, 1.135e-4
0.462, 1.133e-4
0.463, 1.129e-4
0.464, 1.125e-4
0.465, 1.123e-4
0.466, 1.117e-4
0.467, 1.113e-4
0.468, 1.109e-4
0.469, 1.104e-4
0.470, 1.100e-4
0.471, 1.094e-4
0.472, 1.090e-4
0.473, 1.085e-4
0.474, 1.078e-4
0.475, 1.074e-4
0.476, 1.069e-4
0.477, 1.065e-4
0.478, 1.059e-4
0.479, 1.054e-4
0.480, 1.049e-4
0.481, 1.044e-4
0.482, 1.039e-4
0.483, 1.033e-4
0.484, 1.028e-4
0.485, 1.023e-4
0.486, 1.018e-4
0.487, 1.013e-4
0.488, 1.007e-4
0.489, 1.001e-4
0.490, 9.966e-5
0.491, 9.903e-5
0.492, 9.855e-5
0.493, 9.800e-5
0.494, 9.744e-5
0.495, 9.697e-5
0.496, 9.641e-5
0.497, 9.597e-5
0.498, 9.546e-5
0.499, 9.489e-5
0.500, 9.451e-5
0.501, 9.401e-5
0.502, 9.356e-5
0.503, 9.306e-5
0.504, 9.256e-5
0.505, 9.212e-5
0.506, 9.157e-5
0.507, 9.109e-5
0.508, 9.061e-5
0.509, 9.012e-5
0.510, 8.968e-5
0.511, 8.921e-5
0.512, 8.881e-5
0.513, 8.834e-5
0.514, 8.787e-5
0.515, 8.747e-5
0.516, 8.704e-5
0.517, 8.665e-5
0.518, 8.623e-5
0.519, 8.583e-5
0.520, 8.544e-5
0.521, 8.502e-5
0.522, 8.464e-5
0.523, 8.424e-5
0.524, 8.383e-5
0.525, 8.345e-5
0.526, 8.303e-5
0.527, 8.266e-5
0.528, 8.228e-5
0.529, 8.192e-5
0.530, 8.156e-5
0.531, 8.118e-5
0.532, 8.086e-5
0.533, 8.053e-5
0.534, 8.018e-5
0.535, 7.985e-5
0.536, 7.950e-5
0.537, 7.920e-5
0.538, 7.888e-5
0.539, 7.855e-5
0.540, 7.824e-5
0.541, 7.789e-5
0.542, 7.757e-5
0.543, 7.726e-5
0.544, 7.695e-5
0.545, 7.667e-5
0.546, 7.637e-5
0.547, 7.607e-5
0.548, 7.581e-5
0.549, 7.552e-5
0.550, 7.526e-5
0.551, 7.501e-5
0.552, 7.476e-5
0.553, 7.451e-5
0.554, 7.424e-5
0.555, 7.399e-5
0.556, 7.373e-5
0.557, 7.348e-5
0.558, 7.322e-5
0.559, 7.297e-5
0.560, 7.273e-5
0.561, 7.249e-5
0.562, 7.226e-5
0.563, 7.203e-5
0.564, 7.180e-5
0.565, 7.158e-5
0.566, 7.136e-5
0.567, 7.116e-5
0.568, 7.097e-5
0.569, 7.076e-5
0.570, 7.057e-5
0.571, 7.036e-5
0.572, 7.017e-5
0.573, 6.998e-5
0.574, 6.977e-5
0.575, 6.958e-5
0.576, 6.935e-5
0.577, 6.915e-5
0.578, 6.895e-5
0.579, 6.875e-5
0.580, 6.858e-5
0.581, 6.840e-5
0.582, 6.822e-5
0.583, 6.806e-5
0.584, 6.788e-5
0.585, 6.772e-5
0.586, 6.754e-5
0.587, 6.738e-5
0.588, 6.723e-5
0.589, 6.708e-5
0.590, 6.693e-5
0.591, 6.680e-5
0.592, 6.666e-5
0.593, 6.652e-5
0.594, 6.637e-5
0.595, 6.623e-5
0.596, 6.608e-5
0.597, 6.594e-5
0.598, 6.579e-5
0.599, 6.563e-5
0.600, 6.550e-5
0.601, 6.535e-5
0.602, 6.521e-5
0.603, 6.507e-5
0.604, 6.492e-5
0.605, 6.480e-5
0.606, 6.466e-5
0.607, 6.455e-5
0.608, 6.444e-5
0.609, 6.434e-5
0.610, 6.425e-5
0.611, 6.413e-5
0.612, 6.403e-5
0.613, 6.393e-5
0.614, 6.378e-5
0.615, 6.368e-5
0.616, 6.355e-5
0.617, 6.345e-5
0.618, 6.335e-5
0.619, 6.322e-5
0.620, 6.312e-5
0.621, 6.299e-5
0.622, 6.287e-5
0.623, 6.276e-5
0.624, 6.265e-5
0.625, 6.257e-5
0.626, 6.247e-5
0.627, 6.237e-5
0.628, 6.229e-5
0.629, 6.218e-5
0.630, 6.210e-5
0.631, 6.201e-5
0.632, 6.192e-5
0.633, 6.184e-5
0.634, 6.173e-5
0.635, 6.165e-5
0.636, 6.155e-5
0.637, 6.146e-5
0.638, 6.138e-5
0.639, 6.127e-5
0.640, 6.120e-5
0.641, 6.110e-5
0.642, 6.102e-5
0.643, 6.095e-5
0.644, 6.087e-5
0.645, 6.080e-5
0.646, 6.072e-5
0.647, 6.066e-5
0.648, 6.060e-5
0.649, 6.053e-5
0.650, 6.046e-5
0.651, 6.036e-5
0.652, 6.029e-5
0.653, 6.021e-5
0.654, 6.012e-5
0.655, 6.006e-5
0.656, 5.996e-5
0.657, 5.988e-5
0.658, 5.979e-5
0.659, 5.970e-5
0.660, 5.964e-5
0.661, 5.957e-5
0.662, 5.949e-5
0.663, 5.944e-5
0.664, 5.937e-5
0.665, 5.933e-5
0.666, 5.928e-5
0.667, 5.922e-5
0.668, 5.919e-5
0.669, 5.911e-5
0.670, 5.906e-5
0.671, 5.898e-5
0.672, 5.890e-5
0.673, 5.883e-5
0.674, 5.875e-5
0.675, 5.868e-5
0.676, 5.860e-5
0.677, 5.853e-5
0.678, 5.845e-5
0.679, 5.839e-5
0.680, 5.834e-5
0.681, 5.829e-5
0.682, 5.824e-5
0.683, 5.819e-5
0.684, 5.813e-5
0.685, 5.809e-5
0.686, 5.803e-5
0.687, 5.799e-5
0.688, 5.794e-5
0.689, 5.788e-5
0.690, 5.783e-5
0.691, 5.778e-5
0.692, 5.772e-5
0.693, 5.768e-5
0.694, 5.762e-5
0.695, 5.757e-5
0.696, 5.750e-5
0.697, 5.743e-5
0.698, 5.737e-5
0.699, 5.730e-5
0.700, 5.726e-5
0.701, 5.721e-5
0.702, 5.717e-5
0.703, 5.715e-5
0.704, 5.711e-5
0.705, 5.710e-5
0.706, 5.706e-5
0.707, 5.701e-5
0.708, 5.697e-5
0.709, 5.691e-5
0.710, 5.687e-5
0.711, 5.682e-5
0.712, 5.679e-5
0.713, 5.677e-5
0.714, 5.671e-5
0.715, 5.666e-5
0.716, 5.660e-5
0.717, 5.655e-5
0.718, 5.650e-5
0.719, 5.645e-5
0.720, 5.641e-5
0.721, 5.638e-5
0.722, 5.633e-5
0.723, 5.629e-5
0.724, 5.625e-5
0.725, 5.622e-5
0.726, 5.618e-5
0.727, 5.616e-5
0.728, 5.615e-5
0.729, 5.611e-5
0.730, 5.610e-5
0.731, 5.607e-5
0.732, 5.605e-5
0.733, 5.602e-5
0.734, 5.598e-5
0.735, 5.594e-5
0.736, 5.589e-5
0.737, 5.586e-5
0.738, 5.583e-5
0.739, 5.578e-5
0.740, 5.575e-5
0.741, 5.571e-5
0.742, 5.567e-5
0.743, 5.563e-5
0.744, 5.559e-5
0.745, 5.558e-5
0.746, 5.555e-5
0.747, 5.553e-5
0.748, 5.552e-5
0.749, 5.549e-5
0.750, 5.548e-5
0.751, 5.547e-5
0.752, 5.548e-5
0.753, 5.552e-5
0.754, 5.552e-5
0.755, 5.549e-5
0.756, 5.544e-5
0.757, 5.537e-5
0.758, 5.533e-5
0.759, 5.529e-5
0.760, 5.527e-5
0.761, 5.523e-5
0.762, 5.519e-5
0.763, 5.515e-5
0.764, 5.512e-5
0.765, 5.512e-5
0.766, 5.511e-5
0.767, 5.513e-5
0.768, 5.514e-5
0.769, 5.513e-5
0.770, 5.515e-5
0.771, 5.514e-5
0.772, 5.515e-5
0.773, 5.515e-5
0.774, 5.513e-5
0.775, 5.512e-5
0.776, 5.509e-5
0.777, 5.507e-5
0.778, 5.506e-5
0.779, 5.503e-5
0.780, 5.500e-5
0.781, 5.496e-5
0.782, 5.494e-5
0.783, 5.492e-5
0.784, 5.489e-5
0.785, 5.488e-5
0.786, 5.485e-5
0.787, 5.482e-5
0.788, 5.480e-5
0.789, 5.478e-5
0.790, 5.479e-5
0.791, 5.478e-5
0.792, 5.478e-5
0.793, 5.479e-5
0.794, 5.476e-5
0.795, 5.476e-5
0.796, 5.474e-5
0.797, 5.472e-5
0.798, 5.471e-5
0.799, 5.468e-5
0.800, 5.467e-5
0.801, 5.464e-5
0.802, 5.462e-5
0.803, 5.460e-5
0.804, 5.458e-5
0.805, 5.458e-5
0.806, 5.454e-5
0.807, 5.453e-5
0.808, 5.453e-5
0.809, 5.451e-5
0.810, 5.451e-5
0.811, 5.448e-5
0.812, 5.447e-5
0.813, 5.446e-5
0.814, 5.445e-5
0.815, 5.446e-5
0.816, 5.446e-5
0.817, 5.446e-5
0.818, 5.447e-5
0.819, 5.442e-5
0.820, 5.445e-5
0.821, 5.441e-5
0.822, 5.439e-5
0.823, 5.437e-5
0.824, 5.434e-5
0.825, 5.433e-5
0.826, 5.429e-5
0.827, 5.425e-5
0.828, 5.424e-5
0.829, 5.422e-5
0.830, 5.422e-5
0.831, 5.422e-5
0.832, 5.420e-5
0.833, 5.421e-5
0.834, 5.418e-5
0.835, 5.418e-5
0.836, 5.415e-5
0.837, 5.413e-5
0.838, 5.410e-5
0.839, 5.405e-5
0.840, 5.401e-5
0.841, 5.395e-5
0.842, 5.392e-5
0.843, 5.389e-5
0.844, 5.386e-5
0.845, 5.387e-5
0.846, 5.383e-5
0.847, 5.381e-5
0.848, 5.380e-5
0.849, 5.377e-5
0.850, 5.377e-5
0.851, 5.375e-5
0.852, 5.374e-5
0.853, 5.375e-5
0.854, 5.374e-5
0.855, 5.376e-5
0.856, 5.374e-5
0.857, 5.372e-5
0.858, 5.371e-5
0.859, 5.368e-5
0.860, 5.368e-5
0.861, 5.364e-5
0.862, 5.362e-5
0.863, 5.360e-5
0.864, 5.356e-5
0.865, 5.356e-5
0.866, 5.354e-5
0.867, 5.353e-5
0.868, 5.354e-5
0.869, 5.353e-5
0.870, 5.355e-5
0.871, 5.355e-5
0.872, 5.356e-5
0.873, 5.358e-5
0.874, 5.355e-5
0.875, 5.355e-5
0.876, 5.352e-5
0.877, 5.349e-5
0.878, 5.348e-5
0.879, 5.347e-5
0.880, 5.348e-5
0.881, 5.348e-5
0.882, 5.347e-5
0.883, 5.345e-5
0.884, 5.343e-5
0.885, 5.342e-5
0.886, 5.340e-5
0.887, 5.339e-5
0.888, 5.340e-5
0.889, 5.339e-5
0.890, 5.339e-5
0.891, 5.337e-5
0.892, 5.336e-5
0.893, 5.336e-5
0.894, 5.335e-5
0.895, 5.336e-5
0.896, 5.339e-5
0.897, 5.340e-5
0.898, 5.342e-5
0.899, 5.341e-5
0.900, 5.285e-5
0.899, 5.246e-5
0.898, 5.228e-5
0.897, 5.214e-5
0.896, 5.199e-5
0.895, 5.189e-5
0.894, 5.176e-5
0.893, 5.165e-5
0.892, 5.155e-5
0.891, 5.146e-5
0.890, 5.143e-5
0.889, 5.136e-5
0.888, 5.131e-5
0.887, 5.127e-5
0.886, 5.121e-5
0.885, 5.118e-5
0.884, 5.111e-5
0.883, 5.104e-5
0.882, 5.097e-5
0.881, 5.086e-5
0.880, 5.079e-5
0.879, 5.070e-5
0.878, 5.062e-5
0.877, 5.058e-5
0.876, 5.051e-5
0.875, 5.050e-5
0.874, 5.047e-5
0.873, 5.043e-5
0.872, 5.042e-5
0.871, 5.039e-5
0.870, 5.038e-5
0.869, 5.034e-5
0.868, 5.029e-5
0.867, 5.023e-5
0.866, 5.017e-5
0.865, 5.012e-5
0.864, 5.005e-5
0.863, 5.001e-5
0.862, 4.998e-5
0.861, 4.994e-5
0.860, 4.991e-5
0.859, 4.985e-5
0.858, 4.983e-5
0.857, 4.980e-5
0.856, 4.977e-5
0.855, 4.975e-5
0.854, 4.970e-5
0.853, 4.966e-5
0.852, 4.964e-5
0.851, 4.960e-5
0.850, 4.959e-5
0.849, 4.955e-5
0.848, 4.949e-5
0.847, 4.944e-5
0.846, 4.939e-5
0.845, 4.935e-5
0.844, 4.933e-5
0.843, 4.929e-5
0.842, 4.927e-5
0.841, 4.921e-5
0.840, 4.920e-5
0.839, 4.915e-5
0.838, 4.911e-5
0.837, 4.909e-5
0.836, 4.905e-5
0.835, 4.903e-5
0.834, 4.902e-5
0.833, 4.899e-5
0.832, 4.898e-5
0.831, 4.893e-5
0.830, 4.891e-5
0.829, 4.888e-5
0.828, 4.885e-5
0.827, 4.883e-5
0.826, 4.881e-5
0.825, 4.880e-5
0.824, 4.877e-5
0.823, 4.877e-5
0.822, 4.878e-5
0.821, 4.877e-5
0.820, 4.878e-5
0.819, 4.874e-5
0.818, 4.871e-5
0.817, 4.870e-5
0.816, 4.867e-5
0.815, 4.866e-5
0.814, 4.862e-5
0.813, 4.859e-5
0.812, 4.856e-5
0.811, 4.853e-5
0.810, 4.853e-5
0.809, 4.851e-5
0.808, 4.850e-5
0.807, 4.851e-5
0.806, 4.849e-5
0.805, 4.849e-5
0.804, 4.848e-5
0.803, 4.848e-5
0.802, 4.848e-5
0.801, 4.844e-5
0.800, 4.842e-5
0.799, 4.840e-5
0.798, 4.839e-5
0.797, 4.839e-5
0.796, 4.838e-5
0.795, 4.837e-5
0.794, 4.835e-5
0.793, 4.835e-5
0.792, 4.835e-5
0.791, 4.834e-5
0.790, 4.835e-5
0.789, 4.836e-5
0.788, 4.835e-5
0.787, 4.835e-5
0.786, 4.833e-5
0.785, 4.833e-5
0.784, 4.832e-5
0.783, 4.833e-5
0.782, 4.835e-5
0.781, 4.835e-5
0.780, 4.834e-5
0.779, 4.834e-5
0.778, 4.835e-5
0.777, 4.835e-5
0.776, 4.834e-5
0.775, 4.834e-5
0.774, 4.832e-5
0.773, 4.830e-5
0.772, 4.826e-5
0.771, 4.824e-5
0.770, 4.824e-5
0.769, 4.823e-5
0.768, 4.823e-5
0.767, 4.825e-5
0.766, 4.826e-5
0.765, 4.830e-5
0.764, 4.831e-5
0.763, 4.832e-5
0.762, 4.834e-5
0.761, 4.832e-5
0.760, 4.831e-5
0.759, 4.829e-5
0.758, 4.827e-5
0.757, 4.826e-5
0.756, 4.823e-5
0.755, 4.822e-5
0.754, 4.820e-5
0.753, 4.817e-5
0.752, 4.816e-5
0.751, 4.814e-5
0.750, 4.815e-5
0.749, 4.816e-5
0.748, 4.816e-5
0.747, 4.819e-5
0.746, 4.822e-5
0.745, 4.826e-5
0.744, 4.830e-5
0.743, 4.831e-5
0.742, 4.832e-5
0.741, 4.829e-5
0.740, 4.828e-5
0.739, 4.825e-5
0.738, 4.822e-5
0.737, 4.819e-5
0.736, 4.815e-5
0.735, 4.813e-5
0.734, 4.811e-5
0.733, 4.809e-5
0.732, 4.808e-5
0.731, 4.807e-5
0.730, 4.809e-5
0.729, 4.808e-5
0.728, 4.807e-5
0.727, 4.807e-5
0.726, 4.807e-5
0.725, 4.809e-5
0.724, 4.810e-5
0.723, 4.811e-5
0.722, 4.810e-5
0.721, 4.806e-5
0.720, 4.804e-5
0.719, 4.802e-5
0.718, 4.801e-5
0.717, 4.800e-5
0.716, 4.798e-5
0.715, 4.796e-5
0.714, 4.794e-5
0.713, 4.792e-5
0.712, 4.792e-5
0.711, 4.791e-5
0.710, 4.792e-5
0.709, 4.794e-5
0.708, 4.796e-5
0.707, 4.800e-5
0.706, 4.803e-5
0.705, 4.805e-5
0.704, 4.806e-5
0.703, 4.806e-5
0.702, 4.806e-5
0.701, 4.807e-5
0.700, 4.810e-5
0.699, 4.812e-5
0.698, 4.812e-5
0.697, 4.809e-5
0.696, 4.805e-5
0.695, 4.803e-5
0.694, 4.802e-5
0.693, 4.802e-5
0.692, 4.801e-5
0.691, 4.800e-5
0.690, 4.802e-5
0.689, 4.800e-5
0.688, 4.800e-5
0.687, 4.802e-5
0.686, 4.803e-5
0.685, 4.809e-5
0.684, 4.812e-5
0.683, 4.816e-5
0.682, 4.817e-5
0.681, 4.813e-5
0.680, 4.812e-5
0.679, 4.809e-5
0.678, 4.808e-5
0.677, 4.809e-5
0.676, 4.809e-5
0.675, 4.810e-5
0.674, 4.808e-5
0.673, 4.805e-5
0.672, 4.802e-5
0.671, 4.799e-5
0.670, 4.800e-5
0.669, 4.804e-5
0.668, 4.807e-5
0.667, 4.811e-5
0.666, 4.812e-5
0.665, 4.814e-5
0.664, 4.815e-5
0.663, 4.816e-5
0.662, 4.817e-5
0.661, 4.816e-5
0.660, 4.815e-5
0.659, 4.813e-5
0.658, 4.812e-5
0.657, 4.810e-5
0.656, 4.806e-5
0.655, 4.804e-5
0.654, 4.801e-5
0.653, 4.802e-5
0.652, 4.804e-5
0.651, 4.806e-5
0.650, 4.810e-5
0.649, 4.811e-5
0.648, 4.810e-5
0.647, 4.810e-5
0.646, 4.810e-5
0.645, 4.812e-5
0.644, 4.812e-5
0.643, 4.812e-5
0.642, 4.812e-5
0.641, 4.808e-5
0.640, 4.806e-5
0.639, 4.804e-5
0.638, 4.801e-5
0.637, 4.799e-5
0.636, 4.796e-5
0.635, 4.796e-5
0.634, 4.797e-5
0.633, 4.797e-5
0.632, 4.798e-5
0.631, 4.798e-5
0.630, 4.801e-5
0.629, 4.803e-5
0.628, 4.806e-5
0.627, 4.810e-5
0.626, 4.811e-5
0.625, 4.812e-5
0.624, 4.811e-5
0.623, 4.810e-5
0.622, 4.809e-5
0.621, 4.807e-5
0.620, 4.806e-5
0.619, 4.802e-5
0.618, 4.800e-5
0.617, 4.798e-5
0.616, 4.797e-5
0.615, 4.800e-5
0.614, 4.800e-5
0.613, 4.799e-5
0.612, 4.798e-5
0.611, 4.798e-5
0.610, 4.800e-5
0.609, 4.800e-5
0.608, 4.801e-5
0.607, 4.801e-5
0.606, 4.799e-5
0.605, 4.798e-5
0.604, 4.794e-5
0.603, 4.791e-5
0.602, 4.789e-5
0.601, 4.785e-5
0.600, 4.782e-5
0.599, 4.780e-5
0.598, 4.778e-5
0.597, 4.777e-5
0.596, 4.774e-5
0.595, 4.772e-5
0.594, 4.770e-5
0.593, 4.768e-5
0.592, 4.767e-5
0.591, 4.764e-5
0.590, 4.764e-5
0.589, 4.761e-5
0.588, 4.759e-5
0.587, 4.759e-5
0.586, 4.756e-5
0.585, 4.752e-5
0.584, 4.747e-5
0.583, 4.743e-5
0.582, 4.740e-5
0.581, 4.735e-5
0.580, 4.733e-5
0.579, 4.730e-5
0.578, 4.727e-5
0.577, 4.725e-5
0.576, 4.722e-5
0.575, 4.719e-5
0.574, 4.716e-5
0.573, 4.714e-5
0.572, 4.712e-5
0.571, 4.708e-5
0.570, 4.706e-5
0.569, 4.701e-5
0.568, 4.696e-5
0.567, 4.692e-5
0.566, 4.686e-5
0.565, 4.683e-5
0.564, 4.678e-5
0.563, 4.675e-5
0.562, 4.671e-5
0.561, 4.666e-5
0.560, 4.663e-5
0.559, 4.657e-5
0.558, 4.654e-5
0.557, 4.650e-5
0.556, 4.643e-5
0.555, 4.638e-5
0.554, 4.632e-5
0.553, 4.627e-5
0.552, 4.621e-5
0.551, 4.616e-5
0.550, 4.612e-5
0.549, 4.606e-5
0.548, 4.600e-5
0.547, 4.594e-5
0.546, 4.587e-5
0.545, 4.579e-5
0.544, 4.570e-5
0.543, 4.561e-5
0.542, 4.551e-5
0.541, 4.540e-5
0.540, 4.529e-5
0.539, 4.517e-5
0.538, 4.505e-5
0.537, 4.496e-5
0.536, 4.487e-5
0.535, 4.477e-5
0.534, 4.465e-5
0.533, 4.454e-5
0.532, 4.442e-5
0.531, 4.431e-5
0.530, 4.421e-5
0.529, 4.410e-5
0.528, 4.398e-5
0.527, 4.384e-5
0.526, 4.367e-5
0.525, 4.357e-5
0.524, 4.335e-5
0.523, 4.317e-5
0.522, 4.299e-5
0.521, 4.277e-5
0.520, 4.259e-5
0.519, 4.237e-5
0.518, 4.220e-5
0.517, 4.201e-5
0.516, 4.178e-5
0.515, 4.162e-5
0.514, 4.138e-5
0.513, 4.118e-5
0.512, 4.087e-5
0.511, 4.065e-5
0.510, 4.045e-5
0.509, 4.019e-5
0.508, 3.995e-5
0.507, 3.968e-5
0.506, 3.940e-5
0.505, 3.911e-5
0.504, 3.874e-5
0.503, 3.842e-5
0.502, 3.805e-5
0.501, 3.766e-5
0.500, 3.732e-5
0.499, 3.695e-5
0.498, 3.655e-5
0.497, 3.611e-5
0.496, 3.569e-5
0.495, 3.529e-5
0.494, 3.476e-5
0.493, 3.438e-5
0.492, 3.389e-5
0.491, 3.338e-5
0.490, 3.297e-5
0.489, 3.240e-5
0.488, 3.194e-5
0.487, 3.125e-5
0.486, 3.063e-5
0.485, 3.011e-5
0.484, 2.936e-5
0.483, 2.884e-5
0.482, 2.814e-5
0.481, 2.744e-5
0.480, 2.683e-5
0.479, 2.594e-5
0.478, 2.521e-5
0.477, 2.442e-5
0.476, 2.351e-5
0.475, 2.280e-5
0.474, 2.199e-5
0.473, 2.121e-5
0.472, 2.030e-5
0.471, 1.934e-5
0.470, 1.848e-5
0.469, 1.747e-5
0.468, 1.662e-5
0.467, 1.552e-5
0.466, 1.451e-5
0.465, 1.351e-5
0.464, 1.228e-5
0.463, 1.128e-5
0.462, 9.993e-6
0.461, 8.998e-6
0.460, 7.772e-6
0.459, 6.368e-6
0.458, 5.387e-6
0.457, 3.991e-6
0.456, 2.713e-6
0.455, 1.508e-6
0.454, -8.817e-8
0.453, -1.070e-6
0.452, -2.708e-6
0.451, -4.107e-6
0.450, -5.344e-6
0.449, -7.009e-6
0.448, -7.769e-6
0.447, -9.731e-6
0.446, -1.124e-5
0.445, -1.246e-5
0.444, -1.437e-5
0.443, -1.549e-5
0.442, -1.725e-5
0.441, -1.879e-5
0.440, -2.002e-5
0.439, -2.184e-5
0.438, -2.308e-5
0.437, -2.468e-5
0.436, -2.639e-5
0.435, -2.823e-5
0.434, -2.972e-5
0.433, -3.082e-5
0.432, -3.250e-5
0.431, -3.410e-5
0.430, -3.542e-5
0.429, -3.712e-5
0.428, -3.836e-5
0.427, -3.997e-5
0.426, -4.134e-5
0.425, -4.263e-5
0.424, -4.427e-5
0.423, -4.515e-5
0.422, -4.655e-5
0.421, -4.772e-5
0.420, -4.901e-5
0.419, -5.064e-5
0.418, -5.139e-5
0.417, -5.283e-5
0.416, -5.372e-5
0.415, -5.464e-5
0.414, -5.604e-5
0.413, -5.665e-5
0.412, -5.798e-5
0.411, -5.871e-5
0.410, -5.820e-5
0.409, -5.965e-5
0.408, -6.041e-5
0.407, -6.162e-5
0.406, -6.228e-5
0.405, -6.283e-5
0.404, -6.382e-5
0.403, -6.397e-5
0.402, -6.484e-5
0.401, -6.517e-5
0.400, -6.549e-5
0.399, -6.618e-5
0.398, -6.627e-5
0.397, -6.641e-5
0.396, -6.675e-5
0.395, -6.682e-5
0.394, -6.728e-5
0.393, -6.707e-5
0.392, -6.746e-5
0.391, -6.753e-5
0.390, -6.737e-5
0.389, -6.756e-5
0.388, -6.736e-5
0.387, -6.745e-5
0.386, -6.734e-5
0.385, -6.712e-5
0.384, -6.747e-5
0.383, -6.692e-5
0.382, -6.677e-5
0.381, -6.643e-5
0.380, -6.610e-5
0.379, -6.591e-5
0.378, -6.540e-5
0.377, -6.517e-5
0.376, -6.472e-5
0.375, -6.426e-5
0.374, -6.402e-5
0.373, -6.342e-5
0.372, -6.305e-5
0.371, -6.252e-5
0.370, -6.207e-5
0.369, -6.176e-5
0.368, -6.113e-5
0.367, -6.078e-5
0.366, -6.028e-5
0.365, -5.969e-5
0.364, -5.931e-5
0.363, -5.867e-5
0.362, -5.818e-5
0.361, -5.766e-5
0.360, -5.702e-5
0.359, -5.657e-5
0.358, -5.590e-5
0.357, -5.540e-5
0.356, -5.488e-5
0.355, -5.425e-5
0.354, -5.378e-5
0.353, -5.317e-5
0.352, -5.264e-5
0.351, -5.214e-5
0.350, -5.154e-5
0.349, -5.105e-5
0.348, -5.047e-5
0.347, -4.996e-5
0.346, -4.935e-5
0.345, -4.879e-5
0.344, -4.832e-5
0.343, -4.777e-5
0.342, -4.727e-5
0.341, -4.674e-5
0.340, -4.620e-5
0.339, -4.573e-5
0.338, -4.518e-5
0.337, -4.469e-5
0.336, -4.419e-5
0.335, -4.367e-5
0.334, -4.320e-5
0.333, -4.275e-5
0.332, -4.226e-5
0.331, -4.179e-5
0.330, -4.127e-5
0.329, -4.085e-5
0.328, -4.036e-5
0.327, -3.992e-5
0.326, -3.946e-5
0.325, -3.897e-5
0.324, -3.857e-5
0.323, -3.810e-5
0.322, -3.767e-5
0.321, -3.724e-5
0.320, -3.677e-5
0.319, -3.639e-5
0.318, -3.596e-5
0.317, -3.556e-5
0.316, -3.517e-5
0.315, -3.476e-5
0.314, -3.437e-5
0.313, -3.398e-5
0.312, -3.361e-5
0.311, -3.324e-5
0.310, -3.286e-5
0.309, -3.249e-5
0.308, -3.213e-5
0.307, -3.179e-5
0.306, -3.144e-5
0.305, -3.107e-5
0.304, -3.074e-5
0.303, -3.040e-5
0.302, -3.006e-5
0.301, -2.974e-5
0.300, -2.941e-5
0.299, -2.909e-5
0.298, -2.877e-5
0.297, -2.846e-5
0.296, -2.817e-5
0.295, -2.785e-5
0.294, -2.756e-5
0.293, -2.726e-5
0.292, -2.697e-5
0.291, -2.670e-5
0.290, -2.640e-5
0.289, -2.614e-5
0.288, -2.587e-5
0.287, -2.560e-5
0.286, -2.535e-5
0.285, -2.508e-5
0.284, -2.483e-5
0.283, -2.457e-5
0.282, -2.433e-5
0.281, -2.408e-5
0.280, -2.383e-5
0.279, -2.359e-5
0.278, -2.335e-5
0.277, -2.311e-5
0.276, -2.289e-5
0.275, -2.265e-5
0.274, -2.242e-5
0.273, -2.221e-5
0.272, -2.198e-5
0.271, -2.178e-5
0.270, -2.156e-5
0.269, -2.135e-5
0.268, -2.116e-5
0.267, -2.095e-5
0.266, -2.076e-5
0.265, -2.055e-5
0.264, -2.037e-5
0.263, -2.017e-5
0.262, -1.998e-5
0.261, -1.980e-5
0.260, -1.962e-5
0.259, -1.944e-5
0.258, -1.926e-5
0.257, -1.908e-5
0.256, -1.891e-5
0.255, -1.873e-5
0.254, -1.856e-5
0.253, -1.840e-5
0.252, -1.823e-5
0.251, -1.806e-5
0.250, -1.789e-5
0.249, -1.774e-5
0.248, -1.759e-5
0.247, -1.743e-5
0.246, -1.729e-5
0.245, -1.713e-5
0.244, -1.699e-5
0.243, -1.685e-5
0.242, -1.670e-5
0.241, -1.656e-5
0.240, -1.641e-5
0.239, -1.627e-5
0.238, -1.613e-5
0.237, -1.599e-5
0.236, -1.586e-5
0.235, -1.571e-5
0.234, -1.557e-5
0.233, -1.545e-5
0.232, -1.531e-5
0.231, -1.519e-5
0.230, -1.506e-5
0.229, -1.494e-5
0.228, -1.482e-5
0.227, -1.469e-5
0.226, -1.457e-5
0.225, -1.445e-5
0.224, -1.434e-5
0.223, -1.422e-5
0.222, -1.410e-5
0.221, -1.399e-5
0.220, -1.387e-5
0.219, -1.376e-5
0.218, -1.364e-5
0.217, -1.353e-5
0.216, -1.343e-5
0.215, -1.331e-5
0.214, -1.321e-5
0.213, -1.310e-5
0.212, -1.300e-5
0.211, -1.290e-5
0.210, -1.279e-5
0.209, -1.270e-5
0.208, -1.260e-5
0.207, -1.251e-5
0.206, -1.241e-5
0.205, -1.230e-5
0.204, -1.222e-5
0.203, -1.213e-5
0.202, -1.204e-5
0.201, -1.195e-5
0.200, -1.185e-5
0.199, -1.176e-5
0.198, -1.167e-5
0.197, -1.157e-5
0.196, -1.149e-5
0.195, -1.140e-5
0.194, -1.132e-5
0.193, -1.124e-5
0.192, -1.115e-5
0.191, -1.107e-5
0.190, -1.098e-5
0.189, -1.091e-5
0.188, -1.083e-5
0.187, -1.075e-5
0.186, -1.068e-5
0.185, -1.060e-5
0.184, -1.053e-5
0.183, -1.045e-5
0.182, -1.037e-5
0.181, -1.031e-5
0.180, -1.023e-5
0.179, -1.016e-5
0.178, -1.009e-5
0.177, -1.001e-5
0.176, -9.941e-6
0.175, -9.867e-6
0.174, -9.798e-6
0.173, -9.735e-6
0.172, -9.666e-6
0.171, -9.605e-6
0.170, -9.532e-6
0.169, -9.468e-6
0.168, -9.409e-6
0.167, -9.337e-6
0.166, -9.282e-6
0.165, -9.216e-6
0.164, -9.157e-6
0.163, -9.097e-6
0.162, -9.026e-6
0.161, -8.971e-6
0.160, -8.904e-6
0.159, -8.849e-6
0.158, -8.786e-6
0.157, -8.724e-6
0.156, -8.672e-6
0.155, -8.613e-6
0.154, -8.554e-6
0.153, -8.502e-6
0.152, -8.444e-6
0.151, -8.397e-6
0.150, -8.342e-6
0.149, -8.290e-6
0.148, -8.240e-6
0.147, -8.184e-6
0.146, -8.138e-6
0.145, -8.083e-6
0.144, -8.034e-6
0.143, -7.986e-6
0.142, -7.935e-6
0.141, -7.884e-6
0.140, -7.836e-6
0.139, -7.789e-6
0.138, -7.744e-6
0.137, -7.695e-6
0.136, -7.658e-6
0.135, -7.606e-6
0.134, -7.566e-6
0.133, -7.522e-6
0.132, -7.479e-6
0.131, -7.444e-6
0.130, -7.401e-6
0.129, -7.362e-6
0.128, -7.329e-6
0.127, -7.281e-6
0.126, -7.251e-6
0.125, -7.204e-6
0.124, -7.173e-6
0.123, -7.133e-6
0.122, -7.086e-6
0.121, -7.059e-6
0.120, -7.020e-6
0.119, -6.985e-6
0.118, -6.951e-6
0.117, -6.914e-6
0.116, -6.887e-6
0.115, -6.848e-6
0.114, -6.819e-6
0.113, -6.791e-6
0.112, -6.758e-6
0.111, -6.735e-6
0.110, -6.698e-6
0.109, -6.674e-6
0.108, -6.648e-6
0.107, -6.614e-6
0.106, -6.589e-6
0.105, -6.555e-6
0.104, -6.534e-6
0.103, -6.512e-6
0.102, -6.480e-6
0.101, -6.459e-6
0.100, -6.431e-6
0.099, -6.411e-6
0.098, -6.387e-6
0.097, -6.360e-6
0.096, -6.344e-6
0.095, -6.317e-6
0.094, -6.301e-6
0.093, -6.281e-6
0.092, -6.260e-6
0.091, -6.246e-6
0.090, -6.214e-6
0.089, -6.204e-6
0.088, -6.188e-6
0.087, -6.168e-6
0.086, -6.163e-6
0.085, -6.131e-6
0.084, -6.120e-6
0.083, -6.106e-6
0.082, -6.083e-6
0.081, -6.077e-6
0.080, -6.057e-6
0.079, -6.047e-6
0.078, -6.035e-6
0.077, -6.026e-6
0.076, -6.018e-6
0.075, -5.999e-6
0.074, -5.992e-6
0.073, -5.981e-6
0.072, -5.971e-6
0.071, -5.965e-6
0.070, -5.951e-6
0.069, -5.947e-6
0.068, -5.941e-6
0.067, -5.931e-6
0.066, -5.928e-6
0.065, -5.916e-6
0.064, -5.911e-6
0.063, -5.904e-6
0.062, -5.899e-6
0.061, -5.899e-6
0.060, -5.891e-6
0.059, -5.893e-6
0.058, -5.885e-6
0.057, -5.882e-6
0.056, -5.888e-6
0.055, -5.880e-6
0.054, -5.880e-6
0.053, -5.881e-6
0.052, -5.879e-6
0.051, -5.881e-6
0.050, -5.878e-6
0.049, -5.884e-6
0.048, -5.885e-6
0.047, -5.884e-6
0.046, -5.890e-6
0.045, -5.888e-6
0.044, -5.898e-6
0.043, -5.900e-6
0.042, -5.899e-6
0.041, -5.912e-6
0.040, -5.911e-6
0.039, -5.916e-6
0.038, -5.920e-6
0.037, -5.926e-6
0.036, -5.940e-6
0.035, -5.943e-6
0.034, -5.952e-6
0.033, -5.960e-6
0.032, -5.965e-6
0.031, -5.982e-6
0.030, -5.985e-6
0.029, -5.999e-6
0.028, -6.012e-6
0.027, -6.021e-6
0.026, -6.043e-6
0.025, -6.048e-6
0.024, -6.064e-6
0.023, -6.075e-6
0.022, -6.088e-6
0.021, -6.104e-6
0.020, -6.115e-6
0.019, -6.139e-6
0.018, -6.151e-6
0.017, -6.166e-6
0.016, -6.186e-6
0.015, -6.197e-6
0.014, -6.217e-6
0.013, -6.226e-6
0.012, -6.249e-6
0.011, -6.274e-6
0.010, -6.285e-6
0.009, -6.309e-6
0.008, -6.328e-6
0.007, -6.346e-6
0.006, -6.373e-6
0.005, -6.386e-6
0.004, -6.416e-6
0.003, -6.436e-6
0.002, -6.454e-6
0.001, -6.483e-6
