June 30, 2026   19:08:58
Cyclic Voltammetry
File: mecn_ar_0.1mtbapf6_3mm_1mmco(dmgh)2(py)cl_1mmzn(cyclen)(otf)2_2
Data Source:  Experiment
Instrument Model:  CHI660D
Header: 
Note: 

Init E (V) = 0
High E (V) = 0.9
Low E (V) = -1.3
Final E (V) = 0
Init P/N = N
Scan Rate (V/s) = 0.1
Segment = 3
Sample Interval (V) = 0.001
Quiet Time (sec) = 2
Sensitivity (A/V) = 1e-4
Comp R (ohm) = 148.1

Results:

Channel 1:
Segment 1:
Ep = -0.356V
ip = -5.858e-6A
Ah = -4.649e-6C

Ep = -1.033V
ip = -4.490e-5A
Ah = -5.533e-5C

Segment 2:
Ep = 0.447V
ip = 1.036e-4A
Ah = 6.610e-5C

Segment 3:
Ep = 0.391V
ip = -1.039e-4A
Ah = -6.214e-5C

Potential/V, Current/A

0.000, -1.660e-6
-0.001, -1.733e-6
-0.002, -1.778e-6
-0.003, -1.818e-6
-0.004, -1.850e-6
-0.005, -1.889e-6
-0.006, -1.923e-6
-0.007, -1.953e-6
-0.008, -1.990e-6
-0.009, -2.019e-6
-0.010, -2.054e-6
-0.011, -2.085e-6
-0.012, -2.112e-6
-0.013, -2.148e-6
-0.014, -2.176e-6
-0.015, -2.215e-6
-0.016, -2.250e-6
-0.017, -2.281e-6
-0.018, -2.315e-6
-0.019, -2.340e-6
-0.020, -2.381e-6
-0.021, -2.414e-6
-0.022, -2.442e-6
-0.023, -2.482e-6
-0.024, -2.511e-6
-0.025, -2.551e-6
-0.026, -2.583e-6
-0.027, -2.613e-6
-0.028, -2.654e-6
-0.029, -2.683e-6
-0.030, -2.722e-6
-0.031, -2.759e-6
-0.032, -2.790e-6
-0.033, -2.829e-6
-0.034, -2.859e-6
-0.035, -2.901e-6
-0.036, -2.934e-6
-0.037, -2.968e-6
-0.038, -3.005e-6
-0.039, -3.041e-6
-0.040, -3.080e-6
-0.041, -3.116e-6
-0.042, -3.151e-6
-0.043, -3.194e-6
-0.044, -3.231e-6
-0.045, -3.271e-6
-0.046, -3.307e-6
-0.047, -3.343e-6
-0.048, -3.387e-6
-0.049, -3.420e-6
-0.050, -3.466e-6
-0.051, -3.500e-6
-0.052, -3.538e-6
-0.053, -3.581e-6
-0.054, -3.614e-6
-0.055, -3.660e-6
-0.056, -3.702e-6
-0.057, -3.740e-6
-0.058, -3.782e-6
-0.059, -3.816e-6
-0.060, -3.861e-6
-0.061, -3.900e-6
-0.062, -3.937e-6
-0.063, -3.989e-6
-0.064, -4.017e-6
-0.065, -4.062e-6
-0.066, -4.096e-6
-0.067, -4.132e-6
-0.068, -4.183e-6
-0.069, -4.220e-6
-0.070, -4.261e-6
-0.071, -4.304e-6
-0.072, -4.347e-6
-0.073, -4.391e-6
-0.074, -4.428e-6
-0.075, -4.472e-6
-0.076, -4.515e-6
-0.077, -4.556e-6
-0.078, -4.601e-6
-0.079, -4.641e-6
-0.080, -4.689e-6
-0.081, -4.730e-6
-0.082, -4.764e-6
-0.083, -4.812e-6
-0.084, -4.851e-6
-0.085, -4.894e-6
-0.086, -4.938e-6
-0.087, -4.980e-6
-0.088, -5.026e-6
-0.089, -5.058e-6
-0.090, -5.105e-6
-0.091, -5.148e-6
-0.092, -5.191e-6
-0.093, -5.234e-6
-0.094, -5.270e-6
-0.095, -5.314e-6
-0.096, -5.356e-6
-0.097, -5.392e-6
-0.098, -5.439e-6
-0.099, -5.475e-6
-0.100, -5.520e-6
-0.101, -5.559e-6
-0.102, -5.600e-6
-0.103, -5.649e-6
-0.104, -5.685e-6
-0.105, -5.727e-6
-0.106, -5.763e-6
-0.107, -5.800e-6
-0.108, -5.846e-6
-0.109, -5.879e-6
-0.110, -5.917e-6
-0.111, -5.954e-6
-0.112, -5.991e-6
-0.113, -6.034e-6
-0.114, -6.065e-6
-0.115, -6.102e-6
-0.116, -6.146e-6
-0.117, -6.183e-6
-0.118, -6.219e-6
-0.119, -6.253e-6
-0.120, -6.294e-6
-0.121, -6.328e-6
-0.122, -6.362e-6
-0.123, -6.403e-6
-0.124, -6.434e-6
-0.125, -6.472e-6
-0.126, -6.506e-6
-0.127, -6.539e-6
-0.128, -6.586e-6
-0.129, -6.612e-6
-0.130, -6.652e-6
-0.131, -6.681e-6
-0.132, -6.711e-6
-0.133, -6.751e-6
-0.134, -6.777e-6
-0.135, -6.815e-6
-0.136, -6.846e-6
-0.137, -6.876e-6
-0.138, -6.915e-6
-0.139, -6.937e-6
-0.140, -6.971e-6
-0.141, -6.999e-6
-0.142, -7.029e-6
-0.143, -7.066e-6
-0.144, -7.091e-6
-0.145, -7.127e-6
-0.146, -7.155e-6
-0.147, -7.179e-6
-0.148, -7.216e-6
-0.149, -7.238e-6
-0.150, -7.269e-6
-0.151, -7.296e-6
-0.152, -7.321e-6
-0.153, -7.352e-6
-0.154, -7.373e-6
-0.155, -7.404e-6
-0.156, -7.431e-6
-0.157, -7.455e-6
-0.158, -7.484e-6
-0.159, -7.507e-6
-0.160, -7.534e-6
-0.161, -7.560e-6
-0.162, -7.583e-6
-0.163, -7.612e-6
-0.164, -7.632e-6
-0.165, -7.659e-6
-0.166, -7.676e-6
-0.167, -7.697e-6
-0.168, -7.730e-6
-0.169, -7.748e-6
-0.170, -7.774e-6
-0.171, -7.799e-6
-0.172, -7.820e-6
-0.173, -7.849e-6
-0.174, -7.863e-6
-0.175, -7.895e-6
-0.176, -7.915e-6
-0.177, -7.934e-6
-0.178, -7.962e-6
-0.179, -7.985e-6
-0.180, -8.009e-6
-0.181, -8.028e-6
-0.182, -8.045e-6
-0.183, -8.077e-6
-0.184, -8.092e-6
-0.185, -8.119e-6
-0.186, -8.136e-6
-0.187, -8.152e-6
-0.188, -8.181e-6
-0.189, -8.195e-6
-0.190, -8.220e-6
-0.191, -8.242e-6
-0.192, -8.254e-6
-0.193, -8.282e-6
-0.194, -8.300e-6
-0.195, -8.325e-6
-0.196, -8.347e-6
-0.197, -8.367e-6
-0.198, -8.393e-6
-0.199, -8.407e-6
-0.200, -8.433e-6
-0.201, -8.456e-6
-0.202, -8.476e-6
-0.203, -8.504e-6
-0.204, -8.516e-6
-0.205, -8.541e-6
-0.206, -8.569e-6
-0.207, -8.596e-6
-0.208, -8.624e-6
-0.209, -8.644e-6
-0.210, -8.670e-6
-0.211, -8.698e-6
-0.212, -8.727e-6
-0.213, -8.757e-6
-0.214, -8.780e-6
-0.215, -8.818e-6
-0.216, -8.848e-6
-0.217, -8.873e-6
-0.218, -8.913e-6
-0.219, -8.937e-6
-0.220, -8.976e-6
-0.221, -9.013e-6
-0.222, -9.048e-6
-0.223, -9.093e-6
-0.224, -9.123e-6
-0.225, -9.162e-6
-0.226, -9.206e-6
-0.227, -9.242e-6
-0.228, -9.293e-6
-0.229, -9.332e-6
-0.230, -9.385e-6
-0.231, -9.433e-6
-0.232, -9.477e-6
-0.233, -9.533e-6
-0.234, -9.579e-6
-0.235, -9.635e-6
-0.236, -9.691e-6
-0.237, -9.744e-6
-0.238, -9.802e-6
-0.239, -9.855e-6
-0.240, -9.917e-6
-0.241, -9.979e-6
-0.242, -1.005e-5
-0.243, -1.010e-5
-0.244, -1.017e-5
-0.245, -1.023e-5
-0.246, -1.030e-5
-0.247, -1.037e-5
-0.248, -1.045e-5
-0.249, -1.052e-5
-0.250, -1.059e-5
-0.251, -1.067e-5
-0.252, -1.074e-5
-0.253, -1.083e-5
-0.254, -1.090e-5
-0.255, -1.098e-5
-0.256, -1.106e-5
-0.257, -1.115e-5
-0.258, -1.123e-5
-0.259, -1.131e-5
-0.260, -1.140e-5
-0.261, -1.148e-5
-0.262, -1.157e-5
-0.263, -1.166e-5
-0.264, -1.174e-5
-0.265, -1.183e-5
-0.266, -1.192e-5
-0.267, -1.201e-5
-0.268, -1.211e-5
-0.269, -1.219e-5
-0.270, -1.229e-5
-0.271, -1.238e-5
-0.272, -1.247e-5
-0.273, -1.256e-5
-0.274, -1.266e-5
-0.275, -1.275e-5
-0.276, -1.285e-5
-0.277, -1.294e-5
-0.278, -1.304e-5
-0.279, -1.313e-5
-0.280, -1.323e-5
-0.281, -1.333e-5
-0.282, -1.342e-5
-0.283, -1.352e-5
-0.284, -1.361e-5
-0.285, -1.370e-5
-0.286, -1.380e-5
-0.287, -1.389e-5
-0.288, -1.399e-5
-0.289, -1.407e-5
-0.290, -1.417e-5
-0.291, -1.426e-5
-0.292, -1.436e-5
-0.293, -1.445e-5
-0.294, -1.453e-5
-0.295, -1.463e-5
-0.296, -1.472e-5
-0.297, -1.480e-5
-0.298, -1.490e-5
-0.299, -1.498e-5
-0.300, -1.507e-5
-0.301, -1.515e-5
-0.302, -1.524e-5
-0.303, -1.533e-5
-0.304, -1.540e-5
-0.305, -1.549e-5
-0.306, -1.557e-5
-0.307, -1.566e-5
-0.308, -1.574e-5
-0.309, -1.582e-5
-0.310, -1.590e-5
-0.311, -1.597e-5
-0.312, -1.604e-5
-0.313, -1.612e-5
-0.314, -1.618e-5
-0.315, -1.625e-5
-0.316, -1.632e-5
-0.317, -1.639e-5
-0.318, -1.646e-5
-0.319, -1.652e-5
-0.320, -1.657e-5
-0.321, -1.664e-5
-0.322, -1.669e-5
-0.323, -1.675e-5
-0.324, -1.680e-5
-0.325, -1.686e-5
-0.326, -1.691e-5
-0.327, -1.696e-5
-0.328, -1.701e-5
-0.329, -1.705e-5
-0.330, -1.710e-5
-0.331, -1.715e-5
-0.332, -1.719e-5
-0.333, -1.724e-5
-0.334, -1.727e-5
-0.335, -1.731e-5
-0.336, -1.735e-5
-0.337, -1.737e-5
-0.338, -1.741e-5
-0.339, -1.743e-5
-0.340, -1.747e-5
-0.341, -1.749e-5
-0.342, -1.751e-5
-0.343, -1.754e-5
-0.344, -1.756e-5
-0.345, -1.758e-5
-0.346, -1.759e-5
-0.347, -1.761e-5
-0.348, -1.763e-5
-0.349, -1.763e-5
-0.350, -1.765e-5
-0.351, -1.766e-5
-0.352, -1.767e-5
-0.353, -1.768e-5
-0.354, -1.768e-5
-0.355, -1.769e-5
-0.356, -1.770e-5
-0.357, -1.770e-5
-0.358, -1.770e-5
-0.359, -1.770e-5
-0.360, -1.769e-5
-0.361, -1.769e-5
-0.362, -1.769e-5
-0.363, -1.768e-5
-0.364, -1.768e-5
-0.365, -1.768e-5
-0.366, -1.766e-5
-0.367, -1.766e-5
-0.368, -1.765e-5
-0.369, -1.764e-5
-0.370, -1.763e-5
-0.371, -1.761e-5
-0.372, -1.759e-5
-0.373, -1.759e-5
-0.374, -1.757e-5
-0.375, -1.756e-5
-0.376, -1.754e-5
-0.377, -1.752e-5
-0.378, -1.751e-5
-0.379, -1.748e-5
-0.380, -1.747e-5
-0.381, -1.745e-5
-0.382, -1.742e-5
-0.383, -1.741e-5
-0.384, -1.740e-5
-0.385, -1.738e-5
-0.386, -1.735e-5
-0.387, -1.732e-5
-0.388, -1.730e-5
-0.389, -1.728e-5
-0.390, -1.725e-5
-0.391, -1.723e-5
-0.392, -1.720e-5
-0.393, -1.718e-5
-0.394, -1.715e-5
-0.395, -1.713e-5
-0.396, -1.710e-5
-0.397, -1.707e-5
-0.398, -1.705e-5
-0.399, -1.702e-5
-0.400, -1.699e-5
-0.401, -1.697e-5
-0.402, -1.694e-5
-0.403, -1.691e-5
-0.404, -1.688e-5
-0.405, -1.686e-5
-0.406, -1.683e-5
-0.407, -1.680e-5
-0.408, -1.678e-5
-0.409, -1.672e-5
-0.410, -1.669e-5
-0.411, -1.667e-5
-0.412, -1.665e-5
-0.413, -1.662e-5
-0.414, -1.659e-5
-0.415, -1.656e-5
-0.416, -1.654e-5
-0.417, -1.651e-5
-0.418, -1.648e-5
-0.419, -1.645e-5
-0.420, -1.643e-5
-0.421, -1.640e-5
-0.422, -1.636e-5
-0.423, -1.634e-5
-0.424, -1.631e-5
-0.425, -1.628e-5
-0.426, -1.625e-5
-0.427, -1.622e-5
-0.428, -1.620e-5
-0.429, -1.616e-5
-0.430, -1.614e-5
-0.431, -1.611e-5
-0.432, -1.608e-5
-0.433, -1.606e-5
-0.434, -1.602e-5
-0.435, -1.601e-5
-0.436, -1.598e-5
-0.437, -1.594e-5
-0.438, -1.592e-5
-0.439, -1.589e-5
-0.440, -1.586e-5
-0.441, -1.583e-5
-0.442, -1.580e-5
-0.443, -1.578e-5
-0.444, -1.575e-5
-0.445, -1.572e-5
-0.446, -1.570e-5
-0.447, -1.567e-5
-0.448, -1.564e-5
-0.449, -1.560e-5
-0.450, -1.558e-5
-0.451, -1.556e-5
-0.452, -1.553e-5
-0.453, -1.551e-5
-0.454, -1.547e-5
-0.455, -1.545e-5
-0.456, -1.543e-5
-0.457, -1.540e-5
-0.458, -1.538e-5
-0.459, -1.534e-5
-0.460, -1.532e-5
-0.461, -1.530e-5
-0.462, -1.526e-5
-0.463, -1.525e-5
-0.464, -1.522e-5
-0.465, -1.520e-5
-0.466, -1.517e-5
-0.467, -1.514e-5
-0.468, -1.513e-5
-0.469, -1.510e-5
-0.470, -1.508e-5
-0.471, -1.506e-5
-0.472, -1.502e-5
-0.473, -1.500e-5
-0.474, -1.498e-5
-0.475, -1.496e-5
-0.476, -1.494e-5
-0.477, -1.491e-5
-0.478, -1.489e-5
-0.479, -1.486e-5
-0.480, -1.484e-5
-0.481, -1.482e-5
-0.482, -1.479e-5
-0.483, -1.478e-5
-0.484, -1.475e-5
-0.485, -1.473e-5
-0.486, -1.472e-5
-0.487, -1.469e-5
-0.488, -1.468e-5
-0.489, -1.465e-5
-0.490, -1.463e-5
-0.491, -1.461e-5
-0.492, -1.458e-5
-0.493, -1.457e-5
-0.494, -1.454e-5
-0.495, -1.452e-5
-0.496, -1.451e-5
-0.497, -1.448e-5
-0.498, -1.447e-5
-0.499, -1.444e-5
-0.500, -1.443e-5
-0.501, -1.441e-5
-0.502, -1.438e-5
-0.503, -1.437e-5
-0.504, -1.435e-5
-0.505, -1.433e-5
-0.506, -1.432e-5
-0.507, -1.429e-5
-0.508, -1.428e-5
-0.509, -1.426e-5
-0.510, -1.424e-5
-0.511, -1.423e-5
-0.512, -1.421e-5
-0.513, -1.420e-5
-0.514, -1.417e-5
-0.515, -1.416e-5
-0.516, -1.415e-5
-0.517, -1.412e-5
-0.518, -1.411e-5
-0.519, -1.409e-5
-0.520, -1.407e-5
-0.521, -1.406e-5
-0.522, -1.404e-5
-0.523, -1.403e-5
-0.524, -1.401e-5
-0.525, -1.400e-5
-0.526, -1.399e-5
-0.527, -1.397e-5
-0.528, -1.396e-5
-0.529, -1.394e-5
-0.530, -1.393e-5
-0.531, -1.391e-5
-0.532, -1.389e-5
-0.533, -1.388e-5
-0.534, -1.386e-5
-0.535, -1.385e-5
-0.536, -1.384e-5
-0.537, -1.382e-5
-0.538, -1.382e-5
-0.539, -1.379e-5
-0.540, -1.379e-5
-0.541, -1.377e-5
-0.542, -1.375e-5
-0.543, -1.375e-5
-0.544, -1.373e-5
-0.545, -1.372e-5
-0.546, -1.371e-5
-0.547, -1.369e-5
-0.548, -1.369e-5
-0.549, -1.367e-5
-0.550, -1.365e-5
-0.551, -1.364e-5
-0.552, -1.363e-5
-0.553, -1.362e-5
-0.554, -1.360e-5
-0.555, -1.359e-5
-0.556, -1.358e-5
-0.557, -1.356e-5
-0.558, -1.355e-5
-0.559, -1.354e-5
-0.560, -1.353e-5
-0.561, -1.352e-5
-0.562, -1.350e-5
-0.563, -1.349e-5
-0.564, -1.348e-5
-0.565, -1.347e-5
-0.566, -1.346e-5
-0.567, -1.344e-5
-0.568, -1.344e-5
-0.569, -1.341e-5
-0.570, -1.340e-5
-0.571, -1.340e-5
-0.572, -1.338e-5
-0.573, -1.337e-5
-0.574, -1.335e-5
-0.575, -1.334e-5
-0.576, -1.333e-5
-0.577, -1.332e-5
-0.578, -1.331e-5
-0.579, -1.329e-5
-0.580, -1.329e-5
-0.581, -1.328e-5
-0.582, -1.326e-5
-0.583, -1.325e-5
-0.584, -1.324e-5
-0.585, -1.323e-5
-0.586, -1.322e-5
-0.587, -1.320e-5
-0.588, -1.320e-5
-0.589, -1.319e-5
-0.590, -1.317e-5
-0.591, -1.316e-5
-0.592, -1.315e-5
-0.593, -1.314e-5
-0.594, -1.312e-5
-0.595, -1.312e-5
-0.596, -1.311e-5
-0.597, -1.309e-5
-0.598, -1.309e-5
-0.599, -1.307e-5
-0.600, -1.306e-5
-0.601, -1.304e-5
-0.602, -1.303e-5
-0.603, -1.303e-5
-0.604, -1.302e-5
-0.605, -1.301e-5
-0.606, -1.300e-5
-0.607, -1.299e-5
-0.608, -1.298e-5
-0.609, -1.296e-5
-0.610, -1.295e-5
-0.611, -1.295e-5
-0.612, -1.293e-5
-0.613, -1.293e-5
-0.614, -1.289e-5
-0.615, -1.290e-5
-0.616, -1.289e-5
-0.617, -1.287e-5
-0.618, -1.287e-5
-0.619, -1.286e-5
-0.620, -1.286e-5
-0.621, -1.285e-5
-0.622, -1.283e-5
-0.623, -1.283e-5
-0.624, -1.281e-5
-0.625, -1.281e-5
-0.626, -1.280e-5
-0.627, -1.278e-5
-0.628, -1.278e-5
-0.629, -1.277e-5
-0.630, -1.277e-5
-0.631, -1.275e-5
-0.632, -1.274e-5
-0.633, -1.274e-5
-0.634, -1.272e-5
-0.635, -1.272e-5
-0.636, -1.271e-5
-0.637, -1.270e-5
-0.638, -1.270e-5
-0.639, -1.269e-5
-0.640, -1.269e-5
-0.641, -1.268e-5
-0.642, -1.266e-5
-0.643, -1.266e-5
-0.644, -1.265e-5
-0.645, -1.265e-5
-0.646, -1.264e-5
-0.647, -1.262e-5
-0.648, -1.263e-5
-0.649, -1.261e-5
-0.650, -1.261e-5
-0.651, -1.260e-5
-0.652, -1.259e-5
-0.653, -1.259e-5
-0.654, -1.258e-5
-0.655, -1.257e-5
-0.656, -1.257e-5
-0.657, -1.256e-5
-0.658, -1.256e-5
-0.659, -1.254e-5
-0.660, -1.254e-5
-0.661, -1.254e-5
-0.662, -1.253e-5
-0.663, -1.253e-5
-0.664, -1.252e-5
-0.665, -1.252e-5
-0.666, -1.251e-5
-0.667, -1.250e-5
-0.668, -1.251e-5
-0.669, -1.249e-5
-0.670, -1.249e-5
-0.671, -1.249e-5
-0.672, -1.248e-5
-0.673, -1.248e-5
-0.674, -1.247e-5
-0.675, -1.247e-5
-0.676, -1.247e-5
-0.677, -1.245e-5
-0.678, -1.245e-5
-0.679, -1.244e-5
-0.680, -1.245e-5
-0.681, -1.244e-5
-0.682, -1.243e-5
-0.683, -1.243e-5
-0.684, -1.243e-5
-0.685, -1.243e-5
-0.686, -1.242e-5
-0.687, -1.241e-5
-0.688, -1.242e-5
-0.689, -1.241e-5
-0.690, -1.241e-5
-0.691, -1.242e-5
-0.692, -1.241e-5
-0.693, -1.241e-5
-0.694, -1.240e-5
-0.695, -1.240e-5
-0.696, -1.240e-5
-0.697, -1.239e-5
-0.698, -1.240e-5
-0.699, -1.239e-5
-0.700, -1.239e-5
-0.701, -1.240e-5
-0.702, -1.239e-5
-0.703, -1.240e-5
-0.704, -1.238e-5
-0.705, -1.239e-5
-0.706, -1.239e-5
-0.707, -1.238e-5
-0.708, -1.240e-5
-0.709, -1.239e-5
-0.710, -1.239e-5
-0.711, -1.239e-5
-0.712, -1.239e-5
-0.713, -1.240e-5
-0.714, -1.239e-5
-0.715, -1.239e-5
-0.716, -1.241e-5
-0.717, -1.240e-5
-0.718, -1.240e-5
-0.719, -1.240e-5
-0.720, -1.241e-5
-0.721, -1.241e-5
-0.722, -1.241e-5
-0.723, -1.241e-5
-0.724, -1.242e-5
-0.725, -1.242e-5
-0.726, -1.242e-5
-0.727, -1.242e-5
-0.728, -1.244e-5
-0.729, -1.243e-5
-0.730, -1.244e-5
-0.731, -1.244e-5
-0.732, -1.245e-5
-0.733, -1.246e-5
-0.734, -1.246e-5
-0.735, -1.247e-5
-0.736, -1.248e-5
-0.737, -1.248e-5
-0.738, -1.250e-5
-0.739, -1.249e-5
-0.740, -1.250e-5
-0.741, -1.251e-5
-0.742, -1.252e-5
-0.743, -1.253e-5
-0.744, -1.253e-5
-0.745, -1.254e-5
-0.746, -1.255e-5
-0.747, -1.255e-5
-0.748, -1.257e-5
-0.749, -1.257e-5
-0.750, -1.258e-5
-0.751, -1.259e-5
-0.752, -1.260e-5
-0.753, -1.262e-5
-0.754, -1.262e-5
-0.755, -1.262e-5
-0.756, -1.265e-5
-0.757, -1.266e-5
-0.758, -1.268e-5
-0.759, -1.268e-5
-0.760, -1.270e-5
-0.761, -1.271e-5
-0.762, -1.272e-5
-0.763, -1.275e-5
-0.764, -1.276e-5
-0.765, -1.278e-5
-0.766, -1.279e-5
-0.767, -1.280e-5
-0.768, -1.282e-5
-0.769, -1.284e-5
-0.770, -1.286e-5
-0.771, -1.287e-5
-0.772, -1.289e-5
-0.773, -1.292e-5
-0.774, -1.293e-5
-0.775, -1.296e-5
-0.776, -1.299e-5
-0.777, -1.300e-5
-0.778, -1.303e-5
-0.779, -1.304e-5
-0.780, -1.307e-5
-0.781, -1.310e-5
-0.782, -1.311e-5
-0.783, -1.316e-5
-0.784, -1.317e-5
-0.785, -1.321e-5
-0.786, -1.323e-5
-0.787, -1.326e-5
-0.788, -1.330e-5
-0.789, -1.333e-5
-0.790, -1.336e-5
-0.791, -1.340e-5
-0.792, -1.344e-5
-0.793, -1.350e-5
-0.794, -1.352e-5
-0.795, -1.357e-5
-0.796, -1.361e-5
-0.797, -1.365e-5
-0.798, -1.370e-5
-0.799, -1.374e-5
-0.800, -1.379e-5
-0.801, -1.385e-5
-0.802, -1.389e-5
-0.803, -1.396e-5
-0.804, -1.401e-5
-0.805, -1.408e-5
-0.806, -1.412e-5
-0.807, -1.419e-5
-0.808, -1.427e-5
-0.809, -1.434e-5
-0.810, -1.443e-5
-0.811, -1.450e-5
-0.812, -1.457e-5
-0.813, -1.467e-5
-0.814, -1.474e-5
-0.815, -1.484e-5
-0.816, -1.494e-5
-0.817, -1.503e-5
-0.818, -1.513e-5
-0.819, -1.519e-5
-0.820, -1.531e-5
-0.821, -1.542e-5
-0.822, -1.554e-5
-0.823, -1.566e-5
-0.824, -1.577e-5
-0.825, -1.590e-5
-0.826, -1.602e-5
-0.827, -1.614e-5
-0.828, -1.628e-5
-0.829, -1.640e-5
-0.830, -1.655e-5
-0.831, -1.669e-5
-0.832, -1.681e-5
-0.833, -1.696e-5
-0.834, -1.711e-5
-0.835, -1.726e-5
-0.836, -1.743e-5
-0.837, -1.758e-5
-0.838, -1.775e-5
-0.839, -1.790e-5
-0.840, -1.808e-5
-0.841, -1.825e-5
-0.842, -1.842e-5
-0.843, -1.861e-5
-0.844, -1.879e-5
-0.845, -1.900e-5
-0.846, -1.917e-5
-0.847, -1.937e-5
-0.848, -1.956e-5
-0.849, -1.975e-5
-0.850, -1.995e-5
-0.851, -2.014e-5
-0.852, -2.035e-5
-0.853, -2.058e-5
-0.854, -2.077e-5
-0.855, -2.100e-5
-0.856, -2.121e-5
-0.857, -2.142e-5
-0.858, -2.163e-5
-0.859, -2.185e-5
-0.860, -2.211e-5
-0.861, -2.234e-5
-0.862, -2.257e-5
-0.863, -2.282e-5
-0.864, -2.306e-5
-0.865, -2.332e-5
-0.866, -2.356e-5
-0.867, -2.381e-5
-0.868, -2.410e-5
-0.869, -2.434e-5
-0.870, -2.461e-5
-0.871, -2.487e-5
-0.872, -2.514e-5
-0.873, -2.543e-5
-0.874, -2.569e-5
-0.875, -2.596e-5
-0.876, -2.626e-5
-0.877, -2.655e-5
-0.878, -2.686e-5
-0.879, -2.713e-5
-0.880, -2.744e-5
-0.881, -2.774e-5
-0.882, -2.804e-5
-0.883, -2.831e-5
-0.884, -2.863e-5
-0.885, -2.897e-5
-0.886, -2.927e-5
-0.887, -2.959e-5
-0.888, -2.991e-5
-0.889, -3.023e-5
-0.890, -3.060e-5
-0.891, -3.091e-5
-0.892, -3.124e-5
-0.893, -3.162e-5
-0.894, -3.192e-5
-0.895, -3.231e-5
-0.896, -3.272e-5
-0.897, -3.303e-5
-0.898, -3.339e-5
-0.899, -3.372e-5
-0.900, -3.410e-5
-0.901, -3.447e-5
-0.902, -3.484e-5
-0.903, -3.522e-5
-0.904, -3.557e-5
-0.905, -3.598e-5
-0.906, -3.634e-5
-0.907, -3.671e-5
-0.908, -3.712e-5
-0.909, -3.744e-5
-0.910, -3.788e-5
-0.911, -3.827e-5
-0.912, -3.866e-5
-0.913, -3.910e-5
-0.914, -3.948e-5
-0.915, -3.990e-5
-0.916, -4.030e-5
-0.917, -4.070e-5
-0.918, -4.114e-5
-0.919, -4.150e-5
-0.920, -4.195e-5
-0.921, -4.238e-5
-0.922, -4.282e-5
-0.923, -4.322e-5
-0.924, -4.362e-5
-0.925, -4.407e-5
-0.926, -4.444e-5
-0.927, -4.487e-5
-0.928, -4.529e-5
-0.929, -4.567e-5
-0.930, -4.613e-5
-0.931, -4.651e-5
-0.932, -4.696e-5
-0.933, -4.738e-5
-0.934, -4.771e-5
-0.935, -4.815e-5
-0.936, -4.855e-5
-0.937, -4.899e-5
-0.938, -4.938e-5
-0.939, -4.974e-5
-0.940, -5.019e-5
-0.941, -5.057e-5
-0.942, -5.095e-5
-0.943, -5.135e-5
-0.944, -5.173e-5
-0.945, -5.215e-5
-0.946, -5.248e-5
-0.947, -5.292e-5
-0.948, -5.332e-5
-0.949, -5.363e-5
-0.950, -5.400e-5
-0.951, -5.434e-5
-0.952, -5.469e-5
-0.953, -5.506e-5
-0.954, -5.537e-5
-0.955, -5.573e-5
-0.956, -5.606e-5
-0.957, -5.639e-5
-0.958, -5.671e-5
-0.959, -5.699e-5
-0.960, -5.727e-5
-0.961, -5.759e-5
-0.962, -5.791e-5
-0.963, -5.822e-5
-0.964, -5.845e-5
-0.965, -5.877e-5
-0.966, -5.903e-5
-0.967, -5.929e-5
-0.968, -5.958e-5
-0.969, -5.980e-5
-0.970, -6.006e-5
-0.971, -6.026e-5
-0.972, -6.052e-5
-0.973, -6.074e-5
-0.974, -6.094e-5
-0.975, -6.118e-5
-0.976, -6.138e-5
-0.977, -6.156e-5
-0.978, -6.180e-5
-0.979, -6.193e-5
-0.980, -6.216e-5
-0.981, -6.232e-5
-0.982, -6.248e-5
-0.983, -6.268e-5
-0.984, -6.279e-5
-0.985, -6.296e-5
-0.986, -6.310e-5
-0.987, -6.322e-5
-0.988, -6.341e-5
-0.989, -6.349e-5
-0.990, -6.366e-5
-0.991, -6.375e-5
-0.992, -6.385e-5
-0.993, -6.401e-5
-0.994, -6.407e-5
-0.995, -6.419e-5
-0.996, -6.428e-5
-0.997, -6.437e-5
-0.998, -6.450e-5
-0.999, -6.456e-5
-1.000, -6.464e-5
-1.001, -6.471e-5
-1.002, -6.476e-5
-1.003, -6.485e-5
-1.004, -6.490e-5
-1.005, -6.497e-5
-1.006, -6.502e-5
-1.007, -6.506e-5
-1.008, -6.512e-5
-1.009, -6.516e-5
-1.010, -6.522e-5
-1.011, -6.522e-5
-1.012, -6.527e-5
-1.013, -6.533e-5
-1.014, -6.534e-5
-1.015, -6.538e-5
-1.016, -6.541e-5
-1.017, -6.543e-5
-1.018, -6.546e-5
-1.019, -6.547e-5
-1.020, -6.551e-5
-1.021, -6.552e-5
-1.022, -6.551e-5
-1.023, -6.555e-5
-1.024, -6.550e-5
-1.025, -6.555e-5
-1.026, -6.556e-5
-1.027, -6.556e-5
-1.028, -6.558e-5
-1.029, -6.557e-5
-1.030, -6.558e-5
-1.031, -6.559e-5
-1.032, -6.558e-5
-1.033, -6.559e-5
-1.034, -6.557e-5
-1.035, -6.558e-5
-1.036, -6.558e-5
-1.037, -6.555e-5
-1.038, -6.556e-5
-1.039, -6.554e-5
-1.040, -6.554e-5
-1.041, -6.554e-5
-1.042, -6.552e-5
-1.043, -6.552e-5
-1.044, -6.550e-5
-1.045, -6.550e-5
-1.046, -6.549e-5
-1.047, -6.546e-5
-1.048, -6.546e-5
-1.049, -6.546e-5
-1.050, -6.544e-5
-1.051, -6.542e-5
-1.052, -6.541e-5
-1.053, -6.540e-5
-1.054, -6.538e-5
-1.055, -6.536e-5
-1.056, -6.535e-5
-1.057, -6.532e-5
-1.058, -6.532e-5
-1.059, -6.529e-5
-1.060, -6.528e-5
-1.061, -6.527e-5
-1.062, -6.523e-5
-1.063, -6.523e-5
-1.064, -6.521e-5
-1.065, -6.519e-5
-1.066, -6.518e-5
-1.067, -6.516e-5
-1.068, -6.516e-5
-1.069, -6.513e-5
-1.070, -6.511e-5
-1.071, -6.510e-5
-1.072, -6.507e-5
-1.073, -6.507e-5
-1.074, -6.504e-5
-1.075, -6.502e-5
-1.076, -6.501e-5
-1.077, -6.499e-5
-1.078, -6.498e-5
-1.079, -6.496e-5
-1.080, -6.495e-5
-1.081, -6.493e-5
-1.082, -6.491e-5
-1.083, -6.490e-5
-1.084, -6.488e-5
-1.085, -6.487e-5
-1.086, -6.486e-5
-1.087, -6.483e-5
-1.088, -6.481e-5
-1.089, -6.480e-5
-1.090, -6.479e-5
-1.091, -6.477e-5
-1.092, -6.476e-5
-1.093, -6.476e-5
-1.094, -6.474e-5
-1.095, -6.473e-5
-1.096, -6.472e-5
-1.097, -6.470e-5
-1.098, -6.470e-5
-1.099, -6.468e-5
-1.100, -6.468e-5
-1.101, -6.468e-5
-1.102, -6.465e-5
-1.103, -6.465e-5
-1.104, -6.464e-5
-1.105, -6.462e-5
-1.106, -6.462e-5
-1.107, -6.459e-5
-1.108, -6.460e-5
-1.109, -6.459e-5
-1.110, -6.458e-5
-1.111, -6.458e-5
-1.112, -6.456e-5
-1.113, -6.455e-5
-1.114, -6.454e-5
-1.115, -6.454e-5
-1.116, -6.454e-5
-1.117, -6.453e-5
-1.118, -6.453e-5
-1.119, -6.453e-5
-1.120, -6.452e-5
-1.121, -6.453e-5
-1.122, -6.451e-5
-1.123, -6.452e-5
-1.124, -6.451e-5
-1.125, -6.451e-5
-1.126, -6.452e-5
-1.127, -6.451e-5
-1.128, -6.452e-5
-1.129, -6.452e-5
-1.130, -6.452e-5
-1.131, -6.452e-5
-1.132, -6.452e-5
-1.133, -6.454e-5
-1.134, -6.453e-5
-1.135, -6.453e-5
-1.136, -6.455e-5
-1.137, -6.454e-5
-1.138, -6.456e-5
-1.139, -6.454e-5
-1.140, -6.457e-5
-1.141, -6.458e-5
-1.142, -6.458e-5
-1.143, -6.460e-5
-1.144, -6.461e-5
-1.145, -6.462e-5
-1.146, -6.464e-5
-1.147, -6.464e-5
-1.148, -6.467e-5
-1.149, -6.468e-5
-1.150, -6.470e-5
-1.151, -6.472e-5
-1.152, -6.474e-5
-1.153, -6.476e-5
-1.154, -6.477e-5
-1.155, -6.478e-5
-1.156, -6.482e-5
-1.157, -6.483e-5
-1.158, -6.486e-5
-1.159, -6.489e-5
-1.160, -6.491e-5
-1.161, -6.494e-5
-1.162, -6.496e-5
-1.163, -6.500e-5
-1.164, -6.502e-5
-1.165, -6.505e-5
-1.166, -6.509e-5
-1.167, -6.512e-5
-1.168, -6.517e-5
-1.169, -6.519e-5
-1.170, -6.523e-5
-1.171, -6.527e-5
-1.172, -6.531e-5
-1.173, -6.537e-5
-1.174, -6.540e-5
-1.175, -6.545e-5
-1.176, -6.550e-5
-1.177, -6.553e-5
-1.178, -6.560e-5
-1.179, -6.564e-5
-1.180, -6.570e-5
-1.181, -6.575e-5
-1.182, -6.580e-5
-1.183, -6.587e-5
-1.184, -6.592e-5
-1.185, -6.598e-5
-1.186, -6.605e-5
-1.187, -6.611e-5
-1.188, -6.619e-5
-1.189, -6.625e-5
-1.190, -6.630e-5
-1.191, -6.638e-5
-1.192, -6.644e-5
-1.193, -6.653e-5
-1.194, -6.660e-5
-1.195, -6.668e-5
-1.196, -6.677e-5
-1.197, -6.684e-5
-1.198, -6.693e-5
-1.199, -6.702e-5
-1.200, -6.710e-5
-1.201, -6.720e-5
-1.202, -6.728e-5
-1.203, -6.741e-5
-1.204, -6.749e-5
-1.205, -6.759e-5
-1.206, -6.769e-5
-1.207, -6.779e-5
-1.208, -6.790e-5
-1.209, -6.800e-5
-1.210, -6.811e-5
-1.211, -6.822e-5
-1.212, -6.833e-5
-1.213, -6.845e-5
-1.214, -6.854e-5
-1.215, -6.866e-5
-1.216, -6.877e-5
-1.217, -6.889e-5
-1.218, -6.903e-5
-1.219, -6.914e-5
-1.220, -6.927e-5
-1.221, -6.940e-5
-1.222, -6.950e-5
-1.223, -6.965e-5
-1.224, -6.977e-5
-1.225, -6.990e-5
-1.226, -7.003e-5
-1.227, -7.015e-5
-1.228, -7.029e-5
-1.229, -7.038e-5
-1.230, -7.054e-5
-1.231, -7.068e-5
-1.232, -7.079e-5
-1.233, -7.094e-5
-1.234, -7.106e-5
-1.235, -7.120e-5
-1.236, -7.134e-5
-1.237, -7.146e-5
-1.238, -7.160e-5
-1.239, -7.173e-5
-1.240, -7.186e-5
-1.241, -7.200e-5
-1.242, -7.211e-5
-1.243, -7.225e-5
-1.244, -7.238e-5
-1.245, -7.251e-5
-1.246, -7.263e-5
-1.247, -7.275e-5
-1.248, -7.290e-5
-1.249, -7.301e-5
-1.250, -7.314e-5
-1.251, -7.326e-5
-1.252, -7.338e-5
-1.253, -7.350e-5
-1.254, -7.364e-5
-1.255, -7.376e-5
-1.256, -7.387e-5
-1.257, -7.399e-5
-1.258, -7.412e-5
-1.259, -7.421e-5
-1.260, -7.433e-5
-1.261, -7.445e-5
-1.262, -7.454e-5
-1.263, -7.467e-5
-1.264, -7.477e-5
-1.265, -7.488e-5
-1.266, -7.498e-5
-1.267, -7.506e-5
-1.268, -7.519e-5
-1.269, -7.528e-5
-1.270, -7.538e-5
-1.271, -7.549e-5
-1.272, -7.558e-5
-1.273, -7.569e-5
-1.274, -7.578e-5
-1.275, -7.588e-5
-1.276, -7.598e-5
-1.277, -7.606e-5
-1.278, -7.616e-5
-1.279, -7.625e-5
-1.280, -7.634e-5
-1.281, -7.643e-5
-1.282, -7.652e-5
-1.283, -7.662e-5
-1.284, -7.671e-5
-1.285, -7.680e-5
-1.286, -7.689e-5
-1.287, -7.697e-5
-1.288, -7.708e-5
-1.289, -7.715e-5
-1.290, -7.725e-5
-1.291, -7.734e-5
-1.292, -7.742e-5
-1.293, -7.751e-5
-1.294, -7.759e-5
-1.295, -7.769e-5
-1.296, -7.779e-5
-1.297, -7.786e-5
-1.298, -7.797e-5
-1.299, -7.805e-5
-1.300, -7.751e-5
-1.299, -7.677e-5
-1.298, -7.625e-5
-1.297, -7.583e-5
-1.296, -7.542e-5
-1.295, -7.505e-5
-1.294, -7.471e-5
-1.293, -7.439e-5
-1.292, -7.407e-5
-1.291, -7.375e-5
-1.290, -7.346e-5
-1.289, -7.318e-5
-1.288, -7.288e-5
-1.287, -7.261e-5
-1.286, -7.234e-5
-1.285, -7.207e-5
-1.284, -7.182e-5
-1.283, -7.154e-5
-1.282, -7.130e-5
-1.281, -7.103e-5
-1.280, -7.079e-5
-1.279, -7.053e-5
-1.278, -7.028e-5
-1.277, -7.004e-5
-1.276, -6.978e-5
-1.275, -6.954e-5
-1.274, -6.930e-5
-1.273, -6.905e-5
-1.272, -6.882e-5
-1.271, -6.857e-5
-1.270, -6.833e-5
-1.269, -6.810e-5
-1.268, -6.784e-5
-1.267, -6.764e-5
-1.266, -6.739e-5
-1.265, -6.716e-5
-1.264, -6.693e-5
-1.263, -6.668e-5
-1.262, -6.646e-5
-1.261, -6.623e-5
-1.260, -6.600e-5
-1.259, -6.578e-5
-1.258, -6.554e-5
-1.257, -6.531e-5
-1.256, -6.508e-5
-1.255, -6.484e-5
-1.254, -6.461e-5
-1.253, -6.437e-5
-1.252, -6.417e-5
-1.251, -6.393e-5
-1.250, -6.372e-5
-1.249, -6.350e-5
-1.248, -6.326e-5
-1.247, -6.305e-5
-1.246, -6.282e-5
-1.245, -6.261e-5
-1.244, -6.239e-5
-1.243, -6.216e-5
-1.242, -6.198e-5
-1.241, -6.176e-5
-1.240, -6.154e-5
-1.239, -6.134e-5
-1.238, -6.113e-5
-1.237, -6.094e-5
-1.236, -6.071e-5
-1.235, -6.053e-5
-1.234, -6.034e-5
-1.233, -6.013e-5
-1.232, -5.996e-5
-1.231, -5.976e-5
-1.230, -5.957e-5
-1.229, -5.944e-5
-1.228, -5.924e-5
-1.227, -5.906e-5
-1.226, -5.888e-5
-1.225, -5.871e-5
-1.224, -5.854e-5
-1.223, -5.836e-5
-1.222, -5.821e-5
-1.221, -5.804e-5
-1.220, -5.789e-5
-1.219, -5.773e-5
-1.218, -5.757e-5
-1.217, -5.743e-5
-1.216, -5.730e-5
-1.215, -5.715e-5
-1.214, -5.701e-5
-1.213, -5.687e-5
-1.212, -5.674e-5
-1.211, -5.660e-5
-1.210, -5.648e-5
-1.209, -5.636e-5
-1.208, -5.623e-5
-1.207, -5.612e-5
-1.206, -5.600e-5
-1.205, -5.588e-5
-1.204, -5.576e-5
-1.203, -5.562e-5
-1.202, -5.554e-5
-1.201, -5.543e-5
-1.200, -5.532e-5
-1.199, -5.523e-5
-1.198, -5.512e-5
-1.197, -5.503e-5
-1.196, -5.493e-5
-1.195, -5.484e-5
-1.194, -5.475e-5
-1.193, -5.465e-5
-1.192, -5.457e-5
-1.191, -5.448e-5
-1.190, -5.440e-5
-1.189, -5.432e-5
-1.188, -5.422e-5
-1.187, -5.415e-5
-1.186, -5.407e-5
-1.185, -5.400e-5
-1.184, -5.393e-5
-1.183, -5.384e-5
-1.182, -5.377e-5
-1.181, -5.370e-5
-1.180, -5.363e-5
-1.179, -5.356e-5
-1.178, -5.349e-5
-1.177, -5.343e-5
-1.176, -5.336e-5
-1.175, -5.329e-5
-1.174, -5.323e-5
-1.173, -5.317e-5
-1.172, -5.310e-5
-1.171, -5.304e-5
-1.170, -5.298e-5
-1.169, -5.293e-5
-1.168, -5.286e-5
-1.167, -5.281e-5
-1.166, -5.275e-5
-1.165, -5.270e-5
-1.164, -5.265e-5
-1.163, -5.258e-5
-1.162, -5.254e-5
-1.161, -5.248e-5
-1.160, -5.243e-5
-1.159, -5.238e-5
-1.158, -5.232e-5
-1.157, -5.228e-5
-1.156, -5.222e-5
-1.155, -5.217e-5
-1.154, -5.213e-5
-1.153, -5.207e-5
-1.152, -5.202e-5
-1.151, -5.198e-5
-1.150, -5.192e-5
-1.149, -5.189e-5
-1.148, -5.183e-5
-1.147, -5.179e-5
-1.146, -5.175e-5
-1.145, -5.169e-5
-1.144, -5.165e-5
-1.143, -5.160e-5
-1.142, -5.156e-5
-1.141, -5.153e-5
-1.140, -5.148e-5
-1.139, -5.145e-5
-1.138, -5.139e-5
-1.137, -5.135e-5
-1.136, -5.131e-5
-1.135, -5.126e-5
-1.134, -5.123e-5
-1.133, -5.118e-5
-1.132, -5.114e-5
-1.131, -5.110e-5
-1.130, -5.106e-5
-1.129, -5.104e-5
-1.128, -5.098e-5
-1.127, -5.094e-5
-1.126, -5.090e-5
-1.125, -5.087e-5
-1.124, -5.083e-5
-1.123, -5.079e-5
-1.122, -5.076e-5
-1.121, -5.072e-5
-1.120, -5.067e-5
-1.119, -5.064e-5
-1.118, -5.060e-5
-1.117, -5.057e-5
-1.116, -5.053e-5
-1.115, -5.049e-5
-1.114, -5.047e-5
-1.113, -5.042e-5
-1.112, -5.038e-5
-1.111, -5.034e-5
-1.110, -5.030e-5
-1.109, -5.028e-5
-1.108, -5.023e-5
-1.107, -5.019e-5
-1.106, -5.016e-5
-1.105, -5.012e-5
-1.104, -5.010e-5
-1.103, -5.005e-5
-1.102, -5.002e-5
-1.101, -4.997e-5
-1.100, -4.993e-5
-1.099, -4.990e-5
-1.098, -4.986e-5
-1.097, -4.983e-5
-1.096, -4.980e-5
-1.095, -4.975e-5
-1.094, -4.972e-5
-1.093, -4.968e-5
-1.092, -4.964e-5
-1.091, -4.961e-5
-1.090, -4.956e-5
-1.089, -4.954e-5
-1.088, -4.950e-5
-1.087, -4.946e-5
-1.086, -4.941e-5
-1.085, -4.937e-5
-1.084, -4.934e-5
-1.083, -4.929e-5
-1.082, -4.925e-5
-1.081, -4.920e-5
-1.080, -4.917e-5
-1.079, -4.913e-5
-1.078, -4.908e-5
-1.077, -4.904e-5
-1.076, -4.899e-5
-1.075, -4.895e-5
-1.074, -4.891e-5
-1.073, -4.885e-5
-1.072, -4.881e-5
-1.071, -4.876e-5
-1.070, -4.871e-5
-1.069, -4.867e-5
-1.068, -4.861e-5
-1.067, -4.856e-5
-1.066, -4.851e-5
-1.065, -4.845e-5
-1.064, -4.841e-5
-1.063, -4.835e-5
-1.062, -4.830e-5
-1.061, -4.824e-5
-1.060, -4.817e-5
-1.059, -4.812e-5
-1.058, -4.805e-5
-1.057, -4.799e-5
-1.056, -4.793e-5
-1.055, -4.786e-5
-1.054, -4.779e-5
-1.053, -4.772e-5
-1.052, -4.765e-5
-1.051, -4.758e-5
-1.050, -4.749e-5
-1.049, -4.742e-5
-1.048, -4.734e-5
-1.047, -4.726e-5
-1.046, -4.718e-5
-1.045, -4.710e-5
-1.044, -4.702e-5
-1.043, -4.692e-5
-1.042, -4.683e-5
-1.041, -4.673e-5
-1.040, -4.663e-5
-1.039, -4.654e-5
-1.038, -4.643e-5
-1.037, -4.635e-5
-1.036, -4.622e-5
-1.035, -4.611e-5
-1.034, -4.601e-5
-1.033, -4.587e-5
-1.032, -4.577e-5
-1.031, -4.563e-5
-1.030, -4.550e-5
-1.029, -4.539e-5
-1.028, -4.523e-5
-1.027, -4.511e-5
-1.026, -4.496e-5
-1.025, -4.481e-5
-1.024, -4.474e-5
-1.023, -4.452e-5
-1.022, -4.437e-5
-1.021, -4.422e-5
-1.020, -4.403e-5
-1.019, -4.387e-5
-1.018, -4.369e-5
-1.017, -4.351e-5
-1.016, -4.331e-5
-1.015, -4.311e-5
-1.014, -4.291e-5
-1.013, -4.271e-5
-1.012, -4.252e-5
-1.011, -4.232e-5
-1.010, -4.208e-5
-1.009, -4.187e-5
-1.008, -4.161e-5
-1.007, -4.136e-5
-1.006, -4.111e-5
-1.005, -4.088e-5
-1.004, -4.063e-5
-1.003, -4.033e-5
-1.002, -4.010e-5
-1.001, -3.980e-5
-1.000, -3.953e-5
-0.999, -3.921e-5
-0.998, -3.886e-5
-0.997, -3.862e-5
-0.996, -3.828e-5
-0.995, -3.797e-5
-0.994, -3.766e-5
-0.993, -3.730e-5
-0.992, -3.700e-5
-0.991, -3.662e-5
-0.990, -3.627e-5
-0.989, -3.594e-5
-0.988, -3.553e-5
-0.987, -3.519e-5
-0.986, -3.483e-5
-0.985, -3.446e-5
-0.984, -3.408e-5
-0.983, -3.360e-5
-0.982, -3.325e-5
-0.981, -3.280e-5
-0.980, -3.240e-5
-0.979, -3.198e-5
-0.978, -3.151e-5
-0.977, -3.113e-5
-0.976, -3.065e-5
-0.975, -3.019e-5
-0.974, -2.975e-5
-0.973, -2.928e-5
-0.972, -2.886e-5
-0.971, -2.836e-5
-0.970, -2.790e-5
-0.969, -2.742e-5
-0.968, -2.692e-5
-0.967, -2.649e-5
-0.966, -2.598e-5
-0.965, -2.553e-5
-0.964, -2.503e-5
-0.963, -2.450e-5
-0.962, -2.409e-5
-0.961, -2.357e-5
-0.960, -2.316e-5
-0.959, -2.263e-5
-0.958, -2.209e-5
-0.957, -2.167e-5
-0.956, -2.112e-5
-0.955, -2.064e-5
-0.954, -2.020e-5
-0.953, -1.967e-5
-0.952, -1.926e-5
-0.951, -1.871e-5
-0.950, -1.828e-5
-0.949, -1.782e-5
-0.948, -1.728e-5
-0.947, -1.680e-5
-0.946, -1.637e-5
-0.945, -1.593e-5
-0.944, -1.554e-5
-0.943, -1.504e-5
-0.942, -1.465e-5
-0.941, -1.420e-5
-0.940, -1.380e-5
-0.939, -1.340e-5
-0.938, -1.296e-5
-0.937, -1.261e-5
-0.936, -1.220e-5
-0.935, -1.186e-5
-0.934, -1.151e-5
-0.933, -1.111e-5
-0.932, -1.076e-5
-0.931, -1.038e-5
-0.930, -1.004e-5
-0.929, -9.753e-6
-0.928, -9.373e-6
-0.927, -9.086e-6
-0.926, -8.750e-6
-0.925, -8.477e-6
-0.924, -8.172e-6
-0.923, -7.865e-6
-0.922, -7.578e-6
-0.921, -7.271e-6
-0.920, -7.062e-6
-0.919, -6.798e-6
-0.918, -6.536e-6
-0.917, -6.337e-6
-0.916, -6.078e-6
-0.915, -5.870e-6
-0.914, -5.675e-6
-0.913, -5.440e-6
-0.912, -5.277e-6
-0.911, -5.039e-6
-0.910, -4.862e-6
-0.909, -4.748e-6
-0.908, -4.519e-6
-0.907, -4.376e-6
-0.906, -4.203e-6
-0.905, -4.047e-6
-0.904, -3.923e-6
-0.903, -3.731e-6
-0.902, -3.630e-6
-0.901, -3.490e-6
-0.900, -3.361e-6
-0.899, -3.246e-6
-0.898, -3.106e-6
-0.897, -3.003e-6
-0.896, -2.853e-6
-0.895, -2.766e-6
-0.894, -2.700e-6
-0.893, -2.597e-6
-0.892, -2.504e-6
-0.891, -2.405e-6
-0.890, -2.334e-6
-0.889, -2.270e-6
-0.888, -2.179e-6
-0.887, -2.105e-6
-0.886, -2.049e-6
-0.885, -1.987e-6
-0.884, -1.935e-6
-0.883, -1.880e-6
-0.882, -1.828e-6
-0.881, -1.769e-6
-0.880, -1.720e-6
-0.879, -1.675e-6
-0.878, -1.614e-6
-0.877, -1.595e-6
-0.876, -1.543e-6
-0.875, -1.497e-6
-0.874, -1.480e-6
-0.873, -1.438e-6
-0.872, -1.416e-6
-0.871, -1.384e-6
-0.870, -1.354e-6
-0.869, -1.345e-6
-0.868, -1.305e-6
-0.867, -1.297e-6
-0.866, -1.271e-6
-0.865, -1.250e-6
-0.864, -1.253e-6
-0.863, -1.217e-6
-0.862, -1.209e-6
-0.861, -1.202e-6
-0.860, -1.182e-6
-0.859, -1.183e-6
-0.858, -1.179e-6
-0.857, -1.176e-6
-0.856, -1.169e-6
-0.855, -1.152e-6
-0.854, -1.157e-6
-0.853, -1.149e-6
-0.852, -1.156e-6
-0.851, -1.158e-6
-0.850, -1.149e-6
-0.849, -1.154e-6
-0.848, -1.155e-6
-0.847, -1.159e-6
-0.846, -1.163e-6
-0.845, -1.152e-6
-0.844, -1.168e-6
-0.843, -1.167e-6
-0.842, -1.187e-6
-0.841, -1.184e-6
-0.840, -1.191e-6
-0.839, -1.209e-6
-0.838, -1.206e-6
-0.837, -1.226e-6
-0.836, -1.232e-6
-0.835, -1.237e-6
-0.834, -1.260e-6
-0.833, -1.256e-6
-0.832, -1.286e-6
-0.831, -1.287e-6
-0.830, -1.289e-6
-0.829, -1.317e-6
-0.828, -1.309e-6
-0.827, -1.315e-6
-0.826, -1.333e-6
-0.825, -1.336e-6
-0.824, -1.351e-6
-0.823, -1.350e-6
-0.822, -1.365e-6
-0.821, -1.384e-6
-0.820, -1.379e-6
-0.819, -1.412e-6
-0.818, -1.402e-6
-0.817, -1.411e-6
-0.816, -1.423e-6
-0.815, -1.419e-6
-0.814, -1.439e-6
-0.813, -1.442e-6
-0.812, -1.445e-6
-0.811, -1.457e-6
-0.810, -1.460e-6
-0.809, -1.474e-6
-0.808, -1.469e-6
-0.807, -1.483e-6
-0.806, -1.488e-6
-0.805, -1.489e-6
-0.804, -1.500e-6
-0.803, -1.499e-6
-0.802, -1.506e-6
-0.801, -1.516e-6
-0.800, -1.515e-6
-0.799, -1.527e-6
-0.798, -1.529e-6
-0.797, -1.537e-6
-0.796, -1.543e-6
-0.795, -1.541e-6
-0.794, -1.549e-6
-0.793, -1.549e-6
-0.792, -1.561e-6
-0.791, -1.566e-6
-0.790, -1.561e-6
-0.789, -1.579e-6
-0.788, -1.574e-6
-0.787, -1.582e-6
-0.786, -1.590e-6
-0.785, -1.590e-6
-0.784, -1.604e-6
-0.783, -1.600e-6
-0.782, -1.608e-6
-0.781, -1.628e-6
-0.780, -1.619e-6
-0.779, -1.633e-6
-0.778, -1.634e-6
-0.777, -1.638e-6
-0.776, -1.649e-6
-0.775, -1.645e-6
-0.774, -1.660e-6
-0.773, -1.663e-6
-0.772, -1.666e-6
-0.771, -1.673e-6
-0.770, -1.676e-6
-0.769, -1.690e-6
-0.768, -1.691e-6
-0.767, -1.692e-6
-0.766, -1.704e-6
-0.765, -1.704e-6
-0.764, -1.717e-6
-0.763, -1.714e-6
-0.762, -1.725e-6
-0.761, -1.736e-6
-0.760, -1.733e-6
-0.759, -1.748e-6
-0.758, -1.749e-6
-0.757, -1.758e-6
-0.756, -1.767e-6
-0.755, -1.770e-6
-0.754, -1.782e-6
-0.753, -1.780e-6
-0.752, -1.789e-6
-0.751, -1.793e-6
-0.750, -1.793e-6
-0.749, -1.808e-6
-0.748, -1.806e-6
-0.747, -1.811e-6
-0.746, -1.820e-6
-0.745, -1.820e-6
-0.744, -1.834e-6
-0.743, -1.824e-6
-0.742, -1.837e-6
-0.741, -1.849e-6
-0.740, -1.846e-6
-0.739, -1.856e-6
-0.738, -1.859e-6
-0.737, -1.865e-6
-0.736, -1.878e-6
-0.735, -1.872e-6
-0.734, -1.884e-6
-0.733, -1.887e-6
-0.732, -1.888e-6
-0.731, -1.900e-6
-0.730, -1.904e-6
-0.729, -1.911e-6
-0.728, -1.911e-6
-0.727, -1.916e-6
-0.726, -1.927e-6
-0.725, -1.927e-6
-0.724, -1.934e-6
-0.723, -1.936e-6
-0.722, -1.941e-6
-0.721, -1.947e-6
-0.720, -1.946e-6
-0.719, -1.956e-6
-0.718, -1.954e-6
-0.717, -1.959e-6
-0.716, -1.963e-6
-0.715, -1.963e-6
-0.714, -1.977e-6
-0.713, -1.974e-6
-0.712, -1.978e-6
-0.711, -1.988e-6
-0.710, -1.984e-6
-0.709, -1.996e-6
-0.708, -1.993e-6
-0.707, -1.996e-6
-0.706, -2.006e-6
-0.705, -2.008e-6
-0.704, -2.020e-6
-0.703, -2.016e-6
-0.702, -2.018e-6
-0.701, -2.029e-6
-0.700, -2.023e-6
-0.699, -2.030e-6
-0.698, -2.032e-6
-0.697, -2.031e-6
-0.696, -2.041e-6
-0.695, -2.036e-6
-0.694, -2.046e-6
-0.693, -2.045e-6
-0.692, -2.044e-6
-0.691, -2.047e-6
-0.690, -2.050e-6
-0.689, -2.059e-6
-0.688, -2.057e-6
-0.687, -2.059e-6
-0.686, -2.067e-6
-0.685, -2.067e-6
-0.684, -2.071e-6
-0.683, -2.069e-6
-0.682, -2.074e-6
-0.681, -2.080e-6
-0.680, -2.074e-6
-0.679, -2.087e-6
-0.678, -2.082e-6
-0.677, -2.084e-6
-0.676, -2.088e-6
-0.675, -2.084e-6
-0.674, -2.092e-6
-0.673, -2.090e-6
-0.672, -2.091e-6
-0.671, -2.096e-6
-0.670, -2.092e-6
-0.669, -2.100e-6
-0.668, -2.098e-6
-0.667, -2.097e-6
-0.666, -2.109e-6
-0.665, -2.103e-6
-0.664, -2.109e-6
-0.663, -2.105e-6
-0.662, -2.107e-6
-0.661, -2.113e-6
-0.660, -2.108e-6
-0.659, -2.112e-6
-0.658, -2.111e-6
-0.657, -2.108e-6
-0.656, -2.118e-6
-0.655, -2.107e-6
-0.654, -2.118e-6
-0.653, -2.122e-6
-0.652, -2.113e-6
-0.651, -2.121e-6
-0.650, -2.114e-6
-0.649, -2.124e-6
-0.648, -2.117e-6
-0.647, -2.119e-6
-0.646, -2.125e-6
-0.645, -2.119e-6
-0.644, -2.125e-6
-0.643, -2.118e-6
-0.642, -2.116e-6
-0.641, -2.126e-6
-0.640, -2.111e-6
-0.639, -2.121e-6
-0.638, -2.118e-6
-0.637, -2.119e-6
-0.636, -2.121e-6
-0.635, -2.114e-6
-0.634, -2.123e-6
-0.633, -2.117e-6
-0.632, -2.118e-6
-0.631, -2.123e-6
-0.630, -2.111e-6
-0.629, -2.121e-6
-0.628, -2.118e-6
-0.627, -2.119e-6
-0.626, -2.123e-6
-0.625, -2.112e-6
-0.624, -2.118e-6
-0.623, -2.114e-6
-0.622, -2.114e-6
-0.621, -2.118e-6
-0.620, -2.108e-6
-0.619, -2.110e-6
-0.618, -2.110e-6
-0.617, -2.108e-6
-0.616, -2.111e-6
-0.615, -2.111e-6
-0.614, -2.112e-6
-0.613, -2.107e-6
-0.612, -2.101e-6
-0.611, -2.105e-6
-0.610, -2.101e-6
-0.609, -2.104e-6
-0.608, -2.097e-6
-0.607, -2.096e-6
-0.606, -2.103e-6
-0.605, -2.094e-6
-0.604, -2.095e-6
-0.603, -2.088e-6
-0.602, -2.095e-6
-0.601, -2.097e-6
-0.600, -2.081e-6
-0.599, -2.088e-6
-0.598, -2.081e-6
-0.597, -2.081e-6
-0.596, -2.084e-6
-0.595, -2.070e-6
-0.594, -2.079e-6
-0.593, -2.075e-6
-0.592, -2.072e-6
-0.591, -2.072e-6
-0.590, -2.063e-6
-0.589, -2.062e-6
-0.588, -2.061e-6
-0.587, -2.060e-6
-0.586, -2.063e-6
-0.585, -2.053e-6
-0.584, -2.060e-6
-0.583, -2.051e-6
-0.582, -2.047e-6
-0.581, -2.054e-6
-0.580, -2.042e-6
-0.579, -2.046e-6
-0.578, -2.041e-6
-0.577, -2.039e-6
-0.576, -2.045e-6
-0.575, -2.032e-6
-0.574, -2.034e-6
-0.573, -2.033e-6
-0.572, -2.024e-6
-0.571, -2.028e-6
-0.570, -2.021e-6
-0.569, -2.022e-6
-0.568, -2.018e-6
-0.567, -2.011e-6
-0.566, -2.014e-6
-0.565, -2.005e-6
-0.564, -2.008e-6
-0.563, -2.002e-6
-0.562, -2.001e-6
-0.561, -2.002e-6
-0.560, -1.992e-6
-0.559, -1.996e-6
-0.558, -1.987e-6
-0.557, -1.984e-6
-0.556, -1.984e-6
-0.555, -1.973e-6
-0.554, -1.980e-6
-0.553, -1.976e-6
-0.552, -1.966e-6
-0.551, -1.976e-6
-0.550, -1.963e-6
-0.549, -1.967e-6
-0.548, -1.958e-6
-0.547, -1.953e-6
-0.546, -1.955e-6
-0.545, -1.949e-6
-0.544, -1.947e-6
-0.543, -1.939e-6
-0.542, -1.935e-6
-0.541, -1.941e-6
-0.540, -1.926e-6
-0.539, -1.930e-6
-0.538, -1.921e-6
-0.537, -1.919e-6
-0.536, -1.924e-6
-0.535, -1.911e-6
-0.534, -1.916e-6
-0.533, -1.912e-6
-0.532, -1.901e-6
-0.531, -1.902e-6
-0.530, -1.893e-6
-0.529, -1.899e-6
-0.528, -1.888e-6
-0.527, -1.881e-6
-0.526, -1.881e-6
-0.525, -1.880e-6
-0.524, -1.877e-6
-0.523, -1.868e-6
-0.522, -1.861e-6
-0.521, -1.865e-6
-0.520, -1.855e-6
-0.519, -1.855e-6
-0.518, -1.848e-6
-0.517, -1.844e-6
-0.516, -1.842e-6
-0.515, -1.833e-6
-0.514, -1.835e-6
-0.513, -1.831e-6
-0.512, -1.816e-6
-0.511, -1.821e-6
-0.510, -1.809e-6
-0.509, -1.815e-6
-0.508, -1.804e-6
-0.507, -1.797e-6
-0.506, -1.803e-6
-0.505, -1.790e-6
-0.504, -1.791e-6
-0.503, -1.783e-6
-0.502, -1.776e-6
-0.501, -1.779e-6
-0.500, -1.765e-6
-0.499, -1.772e-6
-0.498, -1.759e-6
-0.497, -1.752e-6
-0.496, -1.754e-6
-0.495, -1.736e-6
-0.494, -1.741e-6
-0.493, -1.733e-6
-0.492, -1.722e-6
-0.491, -1.721e-6
-0.490, -1.716e-6
-0.489, -1.710e-6
-0.488, -1.704e-6
-0.487, -1.688e-6
-0.486, -1.692e-6
-0.485, -1.685e-6
-0.484, -1.682e-6
-0.483, -1.674e-6
-0.482, -1.669e-6
-0.481, -1.666e-6
-0.480, -1.658e-6
-0.479, -1.653e-6
-0.478, -1.646e-6
-0.477, -1.639e-6
-0.476, -1.638e-6
-0.475, -1.619e-6
-0.474, -1.629e-6
-0.473, -1.616e-6
-0.472, -1.604e-6
-0.471, -1.601e-6
-0.470, -1.590e-6
-0.469, -1.592e-6
-0.468, -1.580e-6
-0.467, -1.572e-6
-0.466, -1.571e-6
-0.465, -1.557e-6
-0.464, -1.559e-6
-0.463, -1.545e-6
-0.462, -1.539e-6
-0.461, -1.541e-6
-0.460, -1.521e-6
-0.459, -1.521e-6
-0.458, -1.511e-6
-0.457, -1.501e-6
-0.456, -1.497e-6
-0.455, -1.479e-6
-0.454, -1.482e-6
-0.453, -1.471e-6
-0.452, -1.460e-6
-0.451, -1.456e-6
-0.450, -1.444e-6
-0.449, -1.441e-6
-0.448, -1.439e-6
-0.447, -1.421e-6
-0.446, -1.420e-6
-0.445, -1.406e-6
-0.444, -1.402e-6
-0.443, -1.389e-6
-0.442, -1.380e-6
-0.441, -1.376e-6
-0.440, -1.361e-6
-0.439, -1.357e-6
-0.438, -1.344e-6
-0.437, -1.338e-6
-0.436, -1.328e-6
-0.435, -1.308e-6
-0.434, -1.312e-6
-0.433, -1.302e-6
-0.432, -1.292e-6
-0.431, -1.284e-6
-0.430, -1.269e-6
-0.429, -1.265e-6
-0.428, -1.251e-6
-0.427, -1.238e-6
-0.426, -1.238e-6
-0.425, -1.220e-6
-0.424, -1.218e-6
-0.423, -1.202e-6
-0.422, -1.194e-6
-0.421, -1.191e-6
-0.420, -1.173e-6
-0.419, -1.164e-6
-0.418, -1.154e-6
-0.417, -1.140e-6
-0.416, -1.141e-6
-0.415, -1.117e-6
-0.414, -1.113e-6
-0.413, -1.102e-6
-0.412, -1.088e-6
-0.411, -1.084e-6
-0.410, -1.088e-6
-0.409, -1.069e-6
-0.408, -1.052e-6
-0.407, -1.039e-6
-0.406, -1.034e-6
-0.405, -1.014e-6
-0.404, -1.010e-6
-0.403, -9.945e-7
-0.402, -9.831e-7
-0.401, -9.769e-7
-0.400, -9.593e-7
-0.399, -9.526e-7
-0.398, -9.371e-7
-0.397, -9.301e-7
-0.396, -9.210e-7
-0.395, -8.984e-7
-0.394, -8.969e-7
-0.393, -8.811e-7
-0.392, -8.670e-7
-0.391, -8.589e-7
-0.390, -8.441e-7
-0.389, -8.383e-7
-0.388, -8.224e-7
-0.387, -8.090e-7
-0.386, -8.039e-7
-0.385, -7.812e-7
-0.384, -7.663e-7
-0.383, -7.550e-7
-0.382, -7.425e-7
-0.381, -7.390e-7
-0.380, -7.157e-7
-0.379, -7.089e-7
-0.378, -6.977e-7
-0.377, -6.815e-7
-0.376, -6.716e-7
-0.375, -6.534e-7
-0.374, -6.461e-7
-0.373, -6.345e-7
-0.372, -6.175e-7
-0.371, -6.144e-7
-0.370, -5.921e-7
-0.369, -5.845e-7
-0.368, -5.721e-7
-0.367, -5.549e-7
-0.366, -5.479e-7
-0.365, -5.296e-7
-0.364, -5.188e-7
-0.363, -5.049e-7
-0.362, -4.895e-7
-0.361, -4.817e-7
-0.360, -4.649e-7
-0.359, -4.544e-7
-0.358, -4.419e-7
-0.357, -4.235e-7
-0.356, -4.182e-7
-0.355, -3.955e-7
-0.354, -3.889e-7
-0.353, -3.727e-7
-0.352, -3.606e-7
-0.351, -3.521e-7
-0.350, -3.312e-7
-0.349, -3.235e-7
-0.348, -3.081e-7
-0.347, -2.876e-7
-0.346, -2.885e-7
-0.345, -2.663e-7
-0.344, -2.531e-7
-0.343, -2.361e-7
-0.342, -2.176e-7
-0.341, -2.165e-7
-0.340, -1.926e-7
-0.339, -1.843e-7
-0.338, -1.677e-7
-0.337, -1.518e-7
-0.336, -1.461e-7
-0.335, -1.216e-7
-0.334, -1.157e-7
-0.333, -9.275e-8
-0.332, -7.970e-8
-0.331, -7.180e-8
-0.330, -5.173e-8
-0.329, -4.325e-8
-0.328, -2.132e-8
-0.327, -8.361e-9
-0.326, -2.729e-10
-0.325, 1.707e-8
-0.324, 2.935e-8
-0.323, 4.378e-8
-0.322, 5.830e-8
-0.321, 6.736e-8
-0.320, 8.071e-8
-0.319, 9.893e-8
-0.318, 1.112e-7
-0.317, 1.270e-7
-0.316, 1.345e-7
-0.315, 1.549e-7
-0.314, 1.592e-7
-0.313, 1.756e-7
-0.312, 1.964e-7
-0.311, 2.023e-7
-0.310, 2.271e-7
-0.309, 2.324e-7
-0.308, 2.501e-7
-0.307, 2.685e-7
-0.306, 2.723e-7
-0.305, 2.957e-7
-0.304, 3.030e-7
-0.303, 3.183e-7
-0.302, 3.346e-7
-0.301, 3.416e-7
-0.300, 3.653e-7
-0.299, 3.732e-7
-0.298, 3.831e-7
-0.297, 4.005e-7
-0.296, 4.073e-7
-0.295, 4.274e-7
-0.294, 4.378e-7
-0.293, 4.490e-7
-0.292, 4.710e-7
-0.291, 4.800e-7
-0.290, 4.970e-7
-0.289, 5.074e-7
-0.288, 5.171e-7
-0.287, 5.389e-7
-0.286, 5.446e-7
-0.285, 5.640e-7
-0.284, 5.768e-7
-0.283, 5.904e-7
-0.282, 6.118e-7
-0.281, 6.150e-7
-0.280, 6.337e-7
-0.279, 6.427e-7
-0.278, 6.561e-7
-0.277, 6.713e-7
-0.276, 6.796e-7
-0.275, 7.037e-7
-0.274, 7.119e-7
-0.273, 7.247e-7
-0.272, 7.417e-7
-0.271, 7.490e-7
-0.270, 7.695e-7
-0.269, 7.697e-7
-0.268, 7.893e-7
-0.267, 8.077e-7
-0.266, 8.126e-7
-0.265, 8.358e-7
-0.264, 8.414e-7
-0.263, 8.580e-7
-0.262, 8.710e-7
-0.261, 8.786e-7
-0.260, 9.004e-7
-0.259, 9.094e-7
-0.258, 9.200e-7
-0.257, 9.377e-7
-0.256, 9.431e-7
-0.255, 9.656e-7
-0.254, 9.727e-7
-0.253, 9.822e-7
-0.252, 1.001e-6
-0.251, 1.013e-6
-0.250, 1.027e-6
-0.249, 1.038e-6
-0.248, 1.050e-6
-0.247, 1.071e-6
-0.246, 1.077e-6
-0.245, 1.093e-6
-0.244, 1.099e-6
-0.243, 1.112e-6
-0.242, 1.128e-6
-0.241, 1.136e-6
-0.240, 1.154e-6
-0.239, 1.168e-6
-0.238, 1.179e-6
-0.237, 1.196e-6
-0.236, 1.204e-6
-0.235, 1.226e-6
-0.234, 1.229e-6
-0.233, 1.245e-6
-0.232, 1.259e-6
-0.231, 1.276e-6
-0.230, 1.290e-6
-0.229, 1.298e-6
-0.228, 1.312e-6
-0.227, 1.328e-6
-0.226, 1.332e-6
-0.225, 1.350e-6
-0.224, 1.362e-6
-0.223, 1.374e-6
-0.222, 1.391e-6
-0.221, 1.394e-6
-0.220, 1.417e-6
-0.219, 1.427e-6
-0.218, 1.434e-6
-0.217, 1.453e-6
-0.216, 1.460e-6
-0.215, 1.482e-6
-0.214, 1.488e-6
-0.213, 1.498e-6
-0.212, 1.520e-6
-0.211, 1.526e-6
-0.210, 1.544e-6
-0.209, 1.557e-6
-0.208, 1.567e-6
-0.207, 1.581e-6
-0.206, 1.593e-6
-0.205, 1.595e-6
-0.204, 1.614e-6
-0.203, 1.628e-6
-0.202, 1.645e-6
-0.201, 1.652e-6
-0.200, 1.674e-6
-0.199, 1.685e-6
-0.198, 1.696e-6
-0.197, 1.715e-6
-0.196, 1.723e-6
-0.195, 1.743e-6
-0.194, 1.748e-6
-0.193, 1.764e-6
-0.192, 1.777e-6
-0.191, 1.790e-6
-0.190, 1.808e-6
-0.189, 1.818e-6
-0.188, 1.832e-6
-0.187, 1.849e-6
-0.186, 1.855e-6
-0.185, 1.872e-6
-0.184, 1.883e-6
-0.183, 1.899e-6
-0.182, 1.916e-6
-0.181, 1.921e-6
-0.180, 1.943e-6
-0.179, 1.957e-6
-0.178, 1.968e-6
-0.177, 1.980e-6
-0.176, 1.990e-6
-0.175, 2.013e-6
-0.174, 2.023e-6
-0.173, 2.038e-6
-0.172, 2.057e-6
-0.171, 2.065e-6
-0.170, 2.083e-6
-0.169, 2.094e-6
-0.168, 2.105e-6
-0.167, 2.122e-6
-0.166, 2.132e-6
-0.165, 2.152e-6
-0.164, 2.169e-6
-0.163, 2.184e-6
-0.162, 2.199e-6
-0.161, 2.208e-6
-0.160, 2.229e-6
-0.159, 2.241e-6
-0.158, 2.257e-6
-0.157, 2.274e-6
-0.156, 2.288e-6
-0.155, 2.307e-6
-0.154, 2.317e-6
-0.153, 2.330e-6
-0.152, 2.352e-6
-0.151, 2.359e-6
-0.150, 2.383e-6
-0.149, 2.394e-6
-0.148, 2.410e-6
-0.147, 2.431e-6
-0.146, 2.442e-6
-0.145, 2.461e-6
-0.144, 2.474e-6
-0.143, 2.489e-6
-0.142, 2.512e-6
-0.141, 2.514e-6
-0.140, 2.541e-6
-0.139, 2.554e-6
-0.138, 2.569e-6
-0.137, 2.590e-6
-0.136, 2.597e-6
-0.135, 2.620e-6
-0.134, 2.635e-6
-0.133, 2.652e-6
-0.132, 2.675e-6
-0.131, 2.685e-6
-0.130, 2.708e-6
-0.129, 2.722e-6
-0.128, 2.743e-6
-0.127, 2.761e-6
-0.126, 2.772e-6
-0.125, 2.791e-6
-0.124, 2.810e-6
-0.123, 2.825e-6
-0.122, 2.845e-6
-0.121, 2.855e-6
-0.120, 2.880e-6
-0.119, 2.893e-6
-0.118, 2.911e-6
-0.117, 2.933e-6
-0.116, 2.944e-6
-0.115, 2.961e-6
-0.114, 2.979e-6
-0.113, 2.997e-6
-0.112, 3.021e-6
-0.111, 3.036e-6
-0.110, 3.055e-6
-0.109, 3.065e-6
-0.108, 3.083e-6
-0.107, 3.110e-6
-0.106, 3.119e-6
-0.105, 3.147e-6
-0.104, 3.164e-6
-0.103, 3.187e-6
-0.102, 3.208e-6
-0.101, 3.217e-6
-0.100, 3.245e-6
-0.099, 3.260e-6
-0.098, 3.278e-6
-0.097, 3.300e-6
-0.096, 3.310e-6
-0.095, 3.336e-6
-0.094, 3.351e-6
-0.093, 3.367e-6
-0.092, 3.392e-6
-0.091, 3.407e-6
-0.090, 3.424e-6
-0.089, 3.443e-6
-0.088, 3.460e-6
-0.087, 3.484e-6
-0.086, 3.501e-6
-0.085, 3.525e-6
-0.084, 3.544e-6
-0.083, 3.561e-6
-0.082, 3.584e-6
-0.081, 3.600e-6
-0.080, 3.625e-6
-0.079, 3.648e-6
-0.078, 3.663e-6
-0.077, 3.694e-6
-0.076, 3.704e-6
-0.075, 3.732e-6
-0.074, 3.748e-6
-0.073, 3.766e-6
-0.072, 3.794e-6
-0.071, 3.805e-6
-0.070, 3.830e-6
-0.069, 3.851e-6
-0.068, 3.874e-6
-0.067, 3.900e-6
-0.066, 3.911e-6
-0.065, 3.937e-6
-0.064, 3.950e-6
-0.063, 3.977e-6
-0.062, 4.002e-6
-0.061, 4.015e-6
-0.060, 4.041e-6
-0.059, 4.058e-6
-0.058, 4.074e-6
-0.057, 4.109e-6
-0.056, 4.123e-6
-0.055, 4.149e-6
-0.054, 4.169e-6
-0.053, 4.187e-6
-0.052, 4.215e-6
-0.051, 4.230e-6
-0.050, 4.256e-6
-0.049, 4.275e-6
-0.048, 4.294e-6
-0.047, 4.319e-6
-0.046, 4.334e-6
-0.045, 4.360e-6
-0.044, 4.382e-6
-0.043, 4.401e-6
-0.042, 4.425e-6
-0.041, 4.441e-6
-0.040, 4.468e-6
-0.039, 4.488e-6
-0.038, 4.509e-6
-0.037, 4.534e-6
-0.036, 4.551e-6
-0.035, 4.581e-6
-0.034, 4.603e-6
-0.033, 4.625e-6
-0.032, 4.649e-6
-0.031, 4.666e-6
-0.030, 4.696e-6
-0.029, 4.714e-6
-0.028, 4.738e-6
-0.027, 4.761e-6
-0.026, 4.784e-6
-0.025, 4.811e-6
-0.024, 4.832e-6
-0.023, 4.854e-6
-0.022, 4.879e-6
-0.021, 4.893e-6
-0.020, 4.923e-6
-0.019, 4.945e-6
-0.018, 4.963e-6
-0.017, 4.994e-6
-0.016, 5.006e-6
-0.015, 5.035e-6
-0.014, 5.056e-6
-0.013, 5.068e-6
-0.012, 5.106e-6
-0.011, 5.121e-6
-0.010, 5.151e-6
-0.009, 5.169e-6
-0.008, 5.192e-6
-0.007, 5.222e-6
-0.006, 5.236e-6
-0.005, 5.262e-6
-0.004, 5.284e-6
-0.003, 5.308e-6
-0.002, 5.334e-6
-0.001, 5.351e-6
-0.000, 5.356e-6
0.001, 5.392e-6
0.002, 5.410e-6
0.003, 5.439e-6
0.004, 5.461e-6
0.005, 5.489e-6
0.006, 5.506e-6
0.007, 5.530e-6
0.008, 5.555e-6
0.009, 5.577e-6
0.010, 5.605e-6
0.011, 5.624e-6
0.012, 5.647e-6
0.013, 5.671e-6
0.014, 5.689e-6
0.015, 5.720e-6
0.016, 5.739e-6
0.017, 5.759e-6
0.018, 5.784e-6
0.019, 5.800e-6
0.020, 5.833e-6
0.021, 5.854e-6
0.022, 5.870e-6
0.023, 5.899e-6
0.024, 5.918e-6
0.025, 5.952e-6
0.026, 5.970e-6
0.027, 5.988e-6
0.028, 6.015e-6
0.029, 6.033e-6
0.030, 6.064e-6
0.031, 6.087e-6
0.032, 6.102e-6
0.033, 6.133e-6
0.034, 6.149e-6
0.035, 6.177e-6
0.036, 6.199e-6
0.037, 6.221e-6
0.038, 6.240e-6
0.039, 6.260e-6
0.040, 6.288e-6
0.041, 6.310e-6
0.042, 6.331e-6
0.043, 6.355e-6
0.044, 6.373e-6
0.045, 6.400e-6
0.046, 6.424e-6
0.047, 6.442e-6
0.048, 6.468e-6
0.049, 6.484e-6
0.050, 6.511e-6
0.051, 6.528e-6
0.052, 6.553e-6
0.053, 6.581e-6
0.054, 6.595e-6
0.055, 6.623e-6
0.056, 6.645e-6
0.057, 6.665e-6
0.058, 6.691e-6
0.059, 6.705e-6
0.060, 6.734e-6
0.061, 6.754e-6
0.062, 6.775e-6
0.063, 6.800e-6
0.064, 6.809e-6
0.065, 6.839e-6
0.066, 6.859e-6
0.067, 6.876e-6
0.068, 6.906e-6
0.069, 6.923e-6
0.070, 6.946e-6
0.071, 6.965e-6
0.072, 6.981e-6
0.073, 7.011e-6
0.074, 7.025e-6
0.075, 7.053e-6
0.076, 7.075e-6
0.077, 7.099e-6
0.078, 7.121e-6
0.079, 7.135e-6
0.080, 7.160e-6
0.081, 7.181e-6
0.082, 7.197e-6
0.083, 7.219e-6
0.084, 7.234e-6
0.085, 7.257e-6
0.086, 7.277e-6
0.087, 7.296e-6
0.088, 7.320e-6
0.089, 7.329e-6
0.090, 7.354e-6
0.091, 7.372e-6
0.092, 7.392e-6
0.093, 7.416e-6
0.094, 7.427e-6
0.095, 7.451e-6
0.096, 7.466e-6
0.097, 7.485e-6
0.098, 7.511e-6
0.099, 7.521e-6
0.100, 7.549e-6
0.101, 7.567e-6
0.102, 7.586e-6
0.103, 7.606e-6
0.104, 7.617e-6
0.105, 7.643e-6
0.106, 7.659e-6
0.107, 7.672e-6
0.108, 7.696e-6
0.109, 7.707e-6
0.110, 7.730e-6
0.111, 7.750e-6
0.112, 7.767e-6
0.113, 7.790e-6
0.114, 7.800e-6
0.115, 7.814e-6
0.116, 7.835e-6
0.117, 7.850e-6
0.118, 7.870e-6
0.119, 7.883e-6
0.120, 7.904e-6
0.121, 7.919e-6
0.122, 7.929e-6
0.123, 7.949e-6
0.124, 7.959e-6
0.125, 7.982e-6
0.126, 7.994e-6
0.127, 8.008e-6
0.128, 8.038e-6
0.129, 8.045e-6
0.130, 8.063e-6
0.131, 8.073e-6
0.132, 8.087e-6
0.133, 8.111e-6
0.134, 8.115e-6
0.135, 8.135e-6
0.136, 8.148e-6
0.137, 8.162e-6
0.138, 8.179e-6
0.139, 8.183e-6
0.140, 8.203e-6
0.141, 8.208e-6
0.142, 8.223e-6
0.143, 8.241e-6
0.144, 8.250e-6
0.145, 8.268e-6
0.146, 8.281e-6
0.147, 8.286e-6
0.148, 8.306e-6
0.149, 8.313e-6
0.150, 8.329e-6
0.151, 8.339e-6
0.152, 8.352e-6
0.153, 8.367e-6
0.154, 8.375e-6
0.155, 8.390e-6
0.156, 8.403e-6
0.157, 8.412e-6
0.158, 8.424e-6
0.159, 8.432e-6
0.160, 8.444e-6
0.161, 8.457e-6
0.162, 8.468e-6
0.163, 8.481e-6
0.164, 8.492e-6
0.165, 8.506e-6
0.166, 8.510e-6
0.167, 8.523e-6
0.168, 8.537e-6
0.169, 8.545e-6
0.170, 8.558e-6
0.171, 8.569e-6
0.172, 8.579e-6
0.173, 8.593e-6
0.174, 8.599e-6
0.175, 8.614e-6
0.176, 8.621e-6
0.177, 8.632e-6
0.178, 8.648e-6
0.179, 8.659e-6
0.180, 8.671e-6
0.181, 8.678e-6
0.182, 8.686e-6
0.183, 8.703e-6
0.184, 8.707e-6
0.185, 8.724e-6
0.186, 8.732e-6
0.187, 8.738e-6
0.188, 8.758e-6
0.189, 8.761e-6
0.190, 8.774e-6
0.191, 8.785e-6
0.192, 8.786e-6
0.193, 8.806e-6
0.194, 8.811e-6
0.195, 8.823e-6
0.196, 8.835e-6
0.197, 8.845e-6
0.198, 8.861e-6
0.199, 8.867e-6
0.200, 8.881e-6
0.201, 8.893e-6
0.202, 8.902e-6
0.203, 8.915e-6
0.204, 8.921e-6
0.205, 8.923e-6
0.206, 8.939e-6
0.207, 8.949e-6
0.208, 8.974e-6
0.209, 8.982e-6
0.210, 9.000e-6
0.211, 9.009e-6
0.212, 9.022e-6
0.213, 9.042e-6
0.214, 9.046e-6
0.215, 9.066e-6
0.216, 9.079e-6
0.217, 9.086e-6
0.218, 9.109e-6
0.219, 9.116e-6
0.220, 9.137e-6
0.221, 9.153e-6
0.222, 9.164e-6
0.223, 9.185e-6
0.224, 9.193e-6
0.225, 9.217e-6
0.226, 9.232e-6
0.227, 9.246e-6
0.228, 9.271e-6
0.229, 9.281e-6
0.230, 9.305e-6
0.231, 9.327e-6
0.232, 9.345e-6
0.233, 9.367e-6
0.234, 9.381e-6
0.235, 9.402e-6
0.236, 9.421e-6
0.237, 9.442e-6
0.238, 9.470e-6
0.239, 9.487e-6
0.240, 9.515e-6
0.241, 9.537e-6
0.242, 9.560e-6
0.243, 9.579e-6
0.244, 9.605e-6
0.245, 9.634e-6
0.246, 9.658e-6
0.247, 9.684e-6
0.248, 9.714e-6
0.249, 9.738e-6
0.250, 9.769e-6
0.251, 9.794e-6
0.252, 9.830e-6
0.253, 9.867e-6
0.254, 9.887e-6
0.255, 9.930e-6
0.256, 9.957e-6
0.257, 9.995e-6
0.258, 1.004e-5
0.259, 1.007e-5
0.260, 1.011e-5
0.261, 1.015e-5
0.262, 1.018e-5
0.263, 1.023e-5
0.264, 1.026e-5
0.265, 1.032e-5
0.266, 1.036e-5
0.267, 1.040e-5
0.268, 1.045e-5
0.269, 1.049e-5
0.270, 1.055e-5
0.271, 1.059e-5
0.272, 1.064e-5
0.273, 1.071e-5
0.274, 1.075e-5
0.275, 1.082e-5
0.276, 1.087e-5
0.277, 1.094e-5
0.278, 1.100e-5
0.279, 1.106e-5
0.280, 1.113e-5
0.281, 1.120e-5
0.282, 1.128e-5
0.283, 1.135e-5
0.284, 1.142e-5
0.285, 1.150e-5
0.286, 1.157e-5
0.287, 1.165e-5
0.288, 1.174e-5
0.289, 1.181e-5
0.290, 1.191e-5
0.291, 1.199e-5
0.292, 1.209e-5
0.293, 1.220e-5
0.294, 1.227e-5
0.295, 1.239e-5
0.296, 1.248e-5
0.297, 1.260e-5
0.298, 1.272e-5
0.299, 1.282e-5
0.300, 1.295e-5
0.301, 1.307e-5
0.302, 1.319e-5
0.303, 1.332e-5
0.304, 1.344e-5
0.305, 1.360e-5
0.306, 1.371e-5
0.307, 1.387e-5
0.308, 1.403e-5
0.309, 1.418e-5
0.310, 1.435e-5
0.311, 1.448e-5
0.312, 1.465e-5
0.313, 1.484e-5
0.314, 1.499e-5
0.315, 1.519e-5
0.316, 1.535e-5
0.317, 1.556e-5
0.318, 1.575e-5
0.319, 1.595e-5
0.320, 1.613e-5
0.321, 1.634e-5
0.322, 1.658e-5
0.323, 1.679e-5
0.324, 1.702e-5
0.325, 1.728e-5
0.326, 1.750e-5
0.327, 1.775e-5
0.328, 1.802e-5
0.329, 1.828e-5
0.330, 1.858e-5
0.331, 1.881e-5
0.332, 1.914e-5
0.333, 1.951e-5
0.334, 1.975e-5
0.335, 2.009e-5
0.336, 2.037e-5
0.337, 2.078e-5
0.338, 2.111e-5
0.339, 2.142e-5
0.340, 2.184e-5
0.341, 2.220e-5
0.342, 2.261e-5
0.343, 2.300e-5
0.344, 2.339e-5
0.345, 2.387e-5
0.346, 2.420e-5
0.347, 2.472e-5
0.348, 2.521e-5
0.349, 2.568e-5
0.350, 2.625e-5
0.351, 2.674e-5
0.352, 2.729e-5
0.353, 2.786e-5
0.354, 2.840e-5
0.355, 2.903e-5
0.356, 2.956e-5
0.357, 3.029e-5
0.358, 3.087e-5
0.359, 3.150e-5
0.360, 3.228e-5
0.361, 3.292e-5
0.362, 3.372e-5
0.363, 3.446e-5
0.364, 3.519e-5
0.365, 3.609e-5
0.366, 3.682e-5
0.367, 3.775e-5
0.368, 3.857e-5
0.369, 3.946e-5
0.370, 4.050e-5
0.371, 4.111e-5
0.372, 4.222e-5
0.373, 4.319e-5
0.374, 4.421e-5
0.375, 4.539e-5
0.376, 4.623e-5
0.377, 4.747e-5
0.378, 4.854e-5
0.379, 4.959e-5
0.380, 5.090e-5
0.381, 5.192e-5
0.382, 5.322e-5
0.383, 5.442e-5
0.384, 5.580e-5
0.385, 5.712e-5
0.386, 5.812e-5
0.387, 5.956e-5
0.388, 6.085e-5
0.389, 6.202e-5
0.390, 6.360e-5
0.391, 6.465e-5
0.392, 6.618e-5
0.393, 6.753e-5
0.394, 6.873e-5
0.395, 7.042e-5
0.396, 7.153e-5
0.397, 7.263e-5
0.398, 7.432e-5
0.399, 7.555e-5
0.400, 7.717e-5
0.401, 7.834e-5
0.402, 8.009e-5
0.403, 8.124e-5
0.404, 8.263e-5
0.405, 8.421e-5
0.406, 8.530e-5
0.407, 8.693e-5
0.408, 8.809e-5
0.409, 8.897e-5
0.410, 8.941e-5
0.411, 9.118e-5
0.412, 9.298e-5
0.413, 9.406e-5
0.414, 9.524e-5
0.415, 9.683e-5
0.416, 9.741e-5
0.417, 9.908e-5
0.418, 9.992e-5
0.419, 1.010e-4
0.420, 1.024e-4
0.421, 1.029e-4
0.422, 1.040e-4
0.423, 1.048e-4
0.424, 1.057e-4
0.425, 1.069e-4
0.426, 1.074e-4
0.427, 1.083e-4
0.428, 1.090e-4
0.429, 1.095e-4
0.430, 1.106e-4
0.431, 1.108e-4
0.432, 1.116e-4
0.433, 1.120e-4
0.434, 1.124e-4
0.435, 1.134e-4
0.436, 1.134e-4
0.437, 1.139e-4
0.438, 1.142e-4
0.439, 1.143e-4
0.440, 1.147e-4
0.441, 1.146e-4
0.442, 1.149e-4
0.443, 1.150e-4
0.444, 1.150e-4
0.445, 1.152e-4
0.446, 1.150e-4
0.447, 1.153e-4
0.448, 1.148e-4
0.449, 1.148e-4
0.450, 1.149e-4
0.451, 1.145e-4
0.452, 1.146e-4
0.453, 1.143e-4
0.454, 1.140e-4
0.455, 1.139e-4
0.456, 1.135e-4
0.457, 1.134e-4
0.458, 1.131e-4
0.459, 1.126e-4
0.460, 1.124e-4
0.461, 1.118e-4
0.462, 1.116e-4
0.463, 1.112e-4
0.464, 1.107e-4
0.465, 1.104e-4
0.466, 1.100e-4
0.467, 1.095e-4
0.468, 1.091e-4
0.469, 1.085e-4
0.470, 1.082e-4
0.471, 1.076e-4
0.472, 1.071e-4
0.473, 1.066e-4
0.474, 1.060e-4
0.475, 1.056e-4
0.476, 1.050e-4
0.477, 1.046e-4
0.478, 1.041e-4
0.479, 1.035e-4
0.480, 1.030e-4
0.481, 1.025e-4
0.482, 1.020e-4
0.483, 1.014e-4
0.484, 1.009e-4
0.485, 1.004e-4
0.486, 9.988e-5
0.487, 9.937e-5
0.488, 9.879e-5
0.489, 9.824e-5
0.490, 9.776e-5
0.491, 9.715e-5
0.492, 9.668e-5
0.493, 9.618e-5
0.494, 9.560e-5
0.495, 9.515e-5
0.496, 9.459e-5
0.497, 9.411e-5
0.498, 9.362e-5
0.499, 9.300e-5
0.500, 9.259e-5
0.501, 9.206e-5
0.502, 9.159e-5
0.503, 9.112e-5
0.504, 9.060e-5
0.505, 9.018e-5
0.506, 8.967e-5
0.507, 8.922e-5
0.508, 8.877e-5
0.509, 8.829e-5
0.510, 8.787e-5
0.511, 8.741e-5
0.512, 8.700e-5
0.513, 8.656e-5
0.514, 8.610e-5
0.515, 8.568e-5
0.516, 8.525e-5
0.517, 8.483e-5
0.518, 8.441e-5
0.519, 8.399e-5
0.520, 8.360e-5
0.521, 8.319e-5
0.522, 8.279e-5
0.523, 8.241e-5
0.524, 8.201e-5
0.525, 8.161e-5
0.526, 8.124e-5
0.527, 8.087e-5
0.528, 8.051e-5
0.529, 8.014e-5
0.530, 7.979e-5
0.531, 7.944e-5
0.532, 7.909e-5
0.533, 7.875e-5
0.534, 7.839e-5
0.535, 7.807e-5
0.536, 7.773e-5
0.537, 7.741e-5
0.538, 7.710e-5
0.539, 7.675e-5
0.540, 7.644e-5
0.541, 7.613e-5
0.542, 7.582e-5
0.543, 7.552e-5
0.544, 7.520e-5
0.545, 7.492e-5
0.546, 7.462e-5
0.547, 7.433e-5
0.548, 7.405e-5
0.549, 7.376e-5
0.550, 7.347e-5
0.551, 7.320e-5
0.552, 7.293e-5
0.553, 7.267e-5
0.554, 7.239e-5
0.555, 7.213e-5
0.556, 7.188e-5
0.557, 7.162e-5
0.558, 7.137e-5
0.559, 7.111e-5
0.560, 7.087e-5
0.561, 7.062e-5
0.562, 7.038e-5
0.563, 7.014e-5
0.564, 6.989e-5
0.565, 6.967e-5
0.566, 6.943e-5
0.567, 6.920e-5
0.568, 6.898e-5
0.569, 6.875e-5
0.570, 6.854e-5
0.571, 6.832e-5
0.572, 6.810e-5
0.573, 6.790e-5
0.574, 6.768e-5
0.575, 6.747e-5
0.576, 6.726e-5
0.577, 6.706e-5
0.578, 6.687e-5
0.579, 6.665e-5
0.580, 6.647e-5
0.581, 6.628e-5
0.582, 6.607e-5
0.583, 6.589e-5
0.584, 6.569e-5
0.585, 6.551e-5
0.586, 6.533e-5
0.587, 6.514e-5
0.588, 6.497e-5
0.589, 6.479e-5
0.590, 6.461e-5
0.591, 6.444e-5
0.592, 6.426e-5
0.593, 6.410e-5
0.594, 6.392e-5
0.595, 6.376e-5
0.596, 6.360e-5
0.597, 6.343e-5
0.598, 6.327e-5
0.599, 6.310e-5
0.600, 6.295e-5
0.601, 6.279e-5
0.602, 6.263e-5
0.603, 6.248e-5
0.604, 6.233e-5
0.605, 6.218e-5
0.606, 6.203e-5
0.607, 6.187e-5
0.608, 6.173e-5
0.609, 6.159e-5
0.610, 6.145e-5
0.611, 6.130e-5
0.612, 6.116e-5
0.613, 6.103e-5
0.614, 6.086e-5
0.615, 6.074e-5
0.616, 6.061e-5
0.617, 6.048e-5
0.618, 6.035e-5
0.619, 6.021e-5
0.620, 6.009e-5
0.621, 5.996e-5
0.622, 5.983e-5
0.623, 5.971e-5
0.624, 5.958e-5
0.625, 5.947e-5
0.626, 5.935e-5
0.627, 5.921e-5
0.628, 5.910e-5
0.629, 5.898e-5
0.630, 5.887e-5
0.631, 5.875e-5
0.632, 5.863e-5
0.633, 5.853e-5
0.634, 5.841e-5
0.635, 5.830e-5
0.636, 5.820e-5
0.637, 5.808e-5
0.638, 5.799e-5
0.639, 5.787e-5
0.640, 5.778e-5
0.641, 5.767e-5
0.642, 5.757e-5
0.643, 5.747e-5
0.644, 5.737e-5
0.645, 5.727e-5
0.646, 5.716e-5
0.647, 5.707e-5
0.648, 5.698e-5
0.649, 5.688e-5
0.650, 5.679e-5
0.651, 5.669e-5
0.652, 5.659e-5
0.653, 5.650e-5
0.654, 5.641e-5
0.655, 5.633e-5
0.656, 5.624e-5
0.657, 5.614e-5
0.658, 5.607e-5
0.659, 5.597e-5
0.660, 5.589e-5
0.661, 5.581e-5
0.662, 5.572e-5
0.663, 5.565e-5
0.664, 5.556e-5
0.665, 5.548e-5
0.666, 5.540e-5
0.667, 5.531e-5
0.668, 5.525e-5
0.669, 5.516e-5
0.670, 5.509e-5
0.671, 5.502e-5
0.672, 5.493e-5
0.673, 5.487e-5
0.674, 5.479e-5
0.675, 5.472e-5
0.676, 5.465e-5
0.677, 5.458e-5
0.678, 5.450e-5
0.679, 5.443e-5
0.680, 5.437e-5
0.681, 5.430e-5
0.682, 5.423e-5
0.683, 5.417e-5
0.684, 5.410e-5
0.685, 5.404e-5
0.686, 5.397e-5
0.687, 5.390e-5
0.688, 5.385e-5
0.689, 5.378e-5
0.690, 5.373e-5
0.691, 5.368e-5
0.692, 5.362e-5
0.693, 5.356e-5
0.694, 5.349e-5
0.695, 5.344e-5
0.696, 5.339e-5
0.697, 5.333e-5
0.698, 5.328e-5
0.699, 5.322e-5
0.700, 5.317e-5
0.701, 5.312e-5
0.702, 5.306e-5
0.703, 5.302e-5
0.704, 5.295e-5
0.705, 5.291e-5
0.706, 5.287e-5
0.707, 5.280e-5
0.708, 5.277e-5
0.709, 5.271e-5
0.710, 5.267e-5
0.711, 5.263e-5
0.712, 5.257e-5
0.713, 5.254e-5
0.714, 5.249e-5
0.715, 5.244e-5
0.716, 5.241e-5
0.717, 5.237e-5
0.718, 5.233e-5
0.719, 5.227e-5
0.720, 5.224e-5
0.721, 5.220e-5
0.722, 5.215e-5
0.723, 5.212e-5
0.724, 5.207e-5
0.725, 5.203e-5
0.726, 5.199e-5
0.727, 5.195e-5
0.728, 5.192e-5
0.729, 5.187e-5
0.730, 5.183e-5
0.731, 5.180e-5
0.732, 5.176e-5
0.733, 5.174e-5
0.734, 5.169e-5
0.735, 5.166e-5
0.736, 5.162e-5
0.737, 5.158e-5
0.738, 5.155e-5
0.739, 5.151e-5
0.740, 5.148e-5
0.741, 5.145e-5
0.742, 5.143e-5
0.743, 5.139e-5
0.744, 5.135e-5
0.745, 5.132e-5
0.746, 5.129e-5
0.747, 5.125e-5
0.748, 5.123e-5
0.749, 5.119e-5
0.750, 5.115e-5
0.751, 5.113e-5
0.752, 5.109e-5
0.753, 5.107e-5
0.754, 5.103e-5
0.755, 5.098e-5
0.756, 5.097e-5
0.757, 5.094e-5
0.758, 5.092e-5
0.759, 5.087e-5
0.760, 5.085e-5
0.761, 5.082e-5
0.762, 5.078e-5
0.763, 5.077e-5
0.764, 5.073e-5
0.765, 5.071e-5
0.766, 5.068e-5
0.767, 5.064e-5
0.768, 5.062e-5
0.769, 5.058e-5
0.770, 5.056e-5
0.771, 5.053e-5
0.772, 5.050e-5
0.773, 5.048e-5
0.774, 5.044e-5
0.775, 5.042e-5
0.776, 5.040e-5
0.777, 5.037e-5
0.778, 5.035e-5
0.779, 5.031e-5
0.780, 5.029e-5
0.781, 5.026e-5
0.782, 5.023e-5
0.783, 5.021e-5
0.784, 5.018e-5
0.785, 5.016e-5
0.786, 5.014e-5
0.787, 5.010e-5
0.788, 5.009e-5
0.789, 5.006e-5
0.790, 5.003e-5
0.791, 5.001e-5
0.792, 4.999e-5
0.793, 4.998e-5
0.794, 4.996e-5
0.795, 4.993e-5
0.796, 4.991e-5
0.797, 4.988e-5
0.798, 4.986e-5
0.799, 4.984e-5
0.800, 4.982e-5
0.801, 4.980e-5
0.802, 4.977e-5
0.803, 4.976e-5
0.804, 4.973e-5
0.805, 4.972e-5
0.806, 4.969e-5
0.807, 4.966e-5
0.808, 4.966e-5
0.809, 4.963e-5
0.810, 4.962e-5
0.811, 4.960e-5
0.812, 4.958e-5
0.813, 4.957e-5
0.814, 4.954e-5
0.815, 4.953e-5
0.816, 4.951e-5
0.817, 4.949e-5
0.818, 4.948e-5
0.819, 4.941e-5
0.820, 4.943e-5
0.821, 4.942e-5
0.822, 4.939e-5
0.823, 4.939e-5
0.824, 4.937e-5
0.825, 4.936e-5
0.826, 4.935e-5
0.827, 4.933e-5
0.828, 4.933e-5
0.829, 4.932e-5
0.830, 4.930e-5
0.831, 4.929e-5
0.832, 4.926e-5
0.833, 4.927e-5
0.834, 4.925e-5
0.835, 4.924e-5
0.836, 4.924e-5
0.837, 4.922e-5
0.838, 4.922e-5
0.839, 4.921e-5
0.840, 4.920e-5
0.841, 4.920e-5
0.842, 4.919e-5
0.843, 4.919e-5
0.844, 4.917e-5
0.845, 4.919e-5
0.846, 4.917e-5
0.847, 4.916e-5
0.848, 4.916e-5
0.849, 4.915e-5
0.850, 4.914e-5
0.851, 4.914e-5
0.852, 4.913e-5
0.853, 4.914e-5
0.854, 4.912e-5
0.855, 4.912e-5
0.856, 4.912e-5
0.857, 4.910e-5
0.858, 4.912e-5
0.859, 4.910e-5
0.860, 4.911e-5
0.861, 4.911e-5
0.862, 4.910e-5
0.863, 4.911e-5
0.864, 4.910e-5
0.865, 4.910e-5
0.866, 4.910e-5
0.867, 4.909e-5
0.868, 4.911e-5
0.869, 4.910e-5
0.870, 4.909e-5
0.871, 4.909e-5
0.872, 4.909e-5
0.873, 4.910e-5
0.874, 4.909e-5
0.875, 4.909e-5
0.876, 4.910e-5
0.877, 4.909e-5
0.878, 4.910e-5
0.879, 4.909e-5
0.880, 4.910e-5
0.881, 4.910e-5
0.882, 4.909e-5
0.883, 4.909e-5
0.884, 4.909e-5
0.885, 4.910e-5
0.886, 4.910e-5
0.887, 4.909e-5
0.888, 4.910e-5
0.889, 4.910e-5
0.890, 4.910e-5
0.891, 4.910e-5
0.892, 4.910e-5
0.893, 4.911e-5
0.894, 4.910e-5
0.895, 4.910e-5
0.896, 4.912e-5
0.897, 4.911e-5
0.898, 4.912e-5
0.899, 4.911e-5
0.900, 4.846e-5
0.899, 4.780e-5
0.898, 4.737e-5
0.897, 4.701e-5
0.896, 4.666e-5
0.895, 4.637e-5
0.894, 4.609e-5
0.893, 4.582e-5
0.892, 4.557e-5
0.891, 4.533e-5
0.890, 4.510e-5
0.889, 4.488e-5
0.888, 4.466e-5
0.887, 4.447e-5
0.886, 4.427e-5
0.885, 4.408e-5
0.884, 4.390e-5
0.883, 4.371e-5
0.882, 4.355e-5
0.881, 4.337e-5
0.880, 4.320e-5
0.879, 4.305e-5
0.878, 4.288e-5
0.877, 4.274e-5
0.876, 4.258e-5
0.875, 4.244e-5
0.874, 4.230e-5
0.873, 4.214e-5
0.872, 4.202e-5
0.871, 4.188e-5
0.870, 4.174e-5
0.869, 4.162e-5
0.868, 4.148e-5
0.867, 4.136e-5
0.866, 4.124e-5
0.865, 4.111e-5
0.864, 4.100e-5
0.863, 4.087e-5
0.862, 4.077e-5
0.861, 4.065e-5
0.860, 4.054e-5
0.859, 4.043e-5
0.858, 4.033e-5
0.857, 4.022e-5
0.856, 4.011e-5
0.855, 4.001e-5
0.854, 3.991e-5
0.853, 3.980e-5
0.852, 3.971e-5
0.851, 3.961e-5
0.850, 3.952e-5
0.849, 3.942e-5
0.848, 3.932e-5
0.847, 3.924e-5
0.846, 3.914e-5
0.845, 3.904e-5
0.844, 3.896e-5
0.843, 3.886e-5
0.842, 3.879e-5
0.841, 3.869e-5
0.840, 3.861e-5
0.839, 3.853e-5
0.838, 3.844e-5
0.837, 3.837e-5
0.836, 3.828e-5
0.835, 3.820e-5
0.834, 3.813e-5
0.833, 3.804e-5
0.832, 3.799e-5
0.831, 3.790e-5
0.830, 3.782e-5
0.829, 3.775e-5
0.828, 3.766e-5
0.827, 3.760e-5
0.826, 3.753e-5
0.825, 3.745e-5
0.824, 3.739e-5
0.823, 3.732e-5
0.822, 3.725e-5
0.821, 3.718e-5
0.820, 3.713e-5
0.819, 3.707e-5
0.818, 3.698e-5
0.817, 3.693e-5
0.816, 3.686e-5
0.815, 3.679e-5
0.814, 3.673e-5
0.813, 3.666e-5
0.812, 3.661e-5
0.811, 3.654e-5
0.810, 3.647e-5
0.809, 3.642e-5
0.808, 3.635e-5
0.807, 3.631e-5
0.806, 3.623e-5
0.805, 3.618e-5
0.804, 3.612e-5
0.803, 3.606e-5
0.802, 3.601e-5
0.801, 3.594e-5
0.800, 3.589e-5
0.799, 3.584e-5
0.798, 3.577e-5
0.797, 3.573e-5
0.796, 3.567e-5
0.795, 3.561e-5
0.794, 3.556e-5
0.793, 3.549e-5
0.792, 3.545e-5
0.791, 3.540e-5
0.790, 3.535e-5
0.789, 3.530e-5
0.788, 3.523e-5
0.787, 3.520e-5
0.786, 3.515e-5
0.785, 3.509e-5
0.784, 3.505e-5
0.783, 3.498e-5
0.782, 3.495e-5
0.781, 3.491e-5
0.780, 3.485e-5
0.779, 3.480e-5
0.778, 3.474e-5
0.777, 3.471e-5
0.776, 3.466e-5
0.775, 3.461e-5
0.774, 3.457e-5
0.773, 3.451e-5
0.772, 3.447e-5
0.771, 3.442e-5
0.770, 3.438e-5
0.769, 3.434e-5
0.768, 3.429e-5
0.767, 3.425e-5
0.766, 3.421e-5
0.765, 3.417e-5
0.764, 3.413e-5
0.763, 3.408e-5
0.762, 3.404e-5
0.761, 3.399e-5
0.760, 3.395e-5
0.759, 3.392e-5
0.758, 3.386e-5
0.757, 3.383e-5
0.756, 3.379e-5
0.755, 3.375e-5
0.754, 3.372e-5
0.753, 3.367e-5
0.752, 3.364e-5
0.751, 3.359e-5
0.750, 3.355e-5
0.749, 3.352e-5
0.748, 3.347e-5
0.747, 3.344e-5
0.746, 3.340e-5
0.745, 3.336e-5
0.744, 3.332e-5
0.743, 3.327e-5
0.742, 3.325e-5
0.741, 3.321e-5
0.740, 3.317e-5
0.739, 3.314e-5
0.738, 3.310e-5
0.737, 3.307e-5
0.736, 3.303e-5
0.735, 3.300e-5
0.734, 3.297e-5
0.733, 3.292e-5
0.732, 3.289e-5
0.731, 3.285e-5
0.730, 3.283e-5
0.729, 3.279e-5
0.728, 3.276e-5
0.727, 3.272e-5
0.726, 3.269e-5
0.725, 3.266e-5
0.724, 3.263e-5
0.723, 3.258e-5
0.722, 3.256e-5
0.721, 3.252e-5
0.720, 3.249e-5
0.719, 3.246e-5
0.718, 3.242e-5
0.717, 3.239e-5
0.716, 3.236e-5
0.715, 3.232e-5
0.714, 3.230e-5
0.713, 3.227e-5
0.712, 3.224e-5
0.711, 3.221e-5
0.710, 3.218e-5
0.709, 3.215e-5
0.708, 3.211e-5
0.707, 3.209e-5
0.706, 3.206e-5
0.705, 3.202e-5
0.704, 3.201e-5
0.703, 3.196e-5
0.702, 3.194e-5
0.701, 3.191e-5
0.700, 3.187e-5
0.699, 3.185e-5
0.698, 3.181e-5
0.697, 3.179e-5
0.696, 3.176e-5
0.695, 3.173e-5
0.694, 3.171e-5
0.693, 3.168e-5
0.692, 3.165e-5
0.691, 3.162e-5
0.690, 3.159e-5
0.689, 3.157e-5
0.688, 3.153e-5
0.687, 3.151e-5
0.686, 3.148e-5
0.685, 3.145e-5
0.684, 3.143e-5
0.683, 3.139e-5
0.682, 3.137e-5
0.681, 3.134e-5
0.680, 3.131e-5
0.679, 3.130e-5
0.678, 3.126e-5
0.677, 3.125e-5
0.676, 3.121e-5
0.675, 3.119e-5
0.674, 3.117e-5
0.673, 3.113e-5
0.672, 3.111e-5
0.671, 3.108e-5
0.670, 3.105e-5
0.669, 3.103e-5
0.668, 3.099e-5
0.667, 3.097e-5
0.666, 3.095e-5
0.665, 3.092e-5
0.664, 3.090e-5
0.663, 3.086e-5
0.662, 3.084e-5
0.661, 3.082e-5
0.660, 3.079e-5
0.659, 3.077e-5
0.658, 3.074e-5
0.657, 3.072e-5
0.656, 3.070e-5
0.655, 3.067e-5
0.654, 3.065e-5
0.653, 3.063e-5
0.652, 3.060e-5
0.651, 3.057e-5
0.650, 3.055e-5
0.649, 3.053e-5
0.648, 3.049e-5
0.647, 3.047e-5
0.646, 3.045e-5
0.645, 3.042e-5
0.644, 3.039e-5
0.643, 3.036e-5
0.642, 3.035e-5
0.641, 3.032e-5
0.640, 3.029e-5
0.639, 3.028e-5
0.638, 3.025e-5
0.637, 3.023e-5
0.636, 3.020e-5
0.635, 3.017e-5
0.634, 3.016e-5
0.633, 3.012e-5
0.632, 3.010e-5
0.631, 3.008e-5
0.630, 3.005e-5
0.629, 3.003e-5
0.628, 3.000e-5
0.627, 2.998e-5
0.626, 2.996e-5
0.625, 2.992e-5
0.624, 2.990e-5
0.623, 2.987e-5
0.622, 2.985e-5
0.621, 2.983e-5
0.620, 2.980e-5
0.619, 2.978e-5
0.618, 2.975e-5
0.617, 2.973e-5
0.616, 2.971e-5
0.615, 2.969e-5
0.614, 2.966e-5
0.613, 2.962e-5
0.612, 2.960e-5
0.611, 2.958e-5
0.610, 2.954e-5
0.609, 2.952e-5
0.608, 2.949e-5
0.607, 2.947e-5
0.606, 2.944e-5
0.605, 2.941e-5
0.604, 2.938e-5
0.603, 2.935e-5
0.602, 2.934e-5
0.601, 2.931e-5
0.600, 2.927e-5
0.599, 2.925e-5
0.598, 2.921e-5
0.597, 2.919e-5
0.596, 2.916e-5
0.595, 2.913e-5
0.594, 2.911e-5
0.593, 2.907e-5
0.592, 2.904e-5
0.591, 2.901e-5
0.590, 2.898e-5
0.589, 2.894e-5
0.588, 2.890e-5
0.587, 2.888e-5
0.586, 2.885e-5
0.585, 2.881e-5
0.584, 2.878e-5
0.583, 2.874e-5
0.582, 2.872e-5
0.581, 2.868e-5
0.580, 2.864e-5
0.579, 2.861e-5
0.578, 2.857e-5
0.577, 2.854e-5
0.576, 2.851e-5
0.575, 2.845e-5
0.574, 2.842e-5
0.573, 2.838e-5
0.572, 2.833e-5
0.571, 2.829e-5
0.570, 2.825e-5
0.569, 2.820e-5
0.568, 2.815e-5
0.567, 2.811e-5
0.566, 2.806e-5
0.565, 2.801e-5
0.564, 2.797e-5
0.563, 2.792e-5
0.562, 2.788e-5
0.561, 2.782e-5
0.560, 2.776e-5
0.559, 2.771e-5
0.558, 2.764e-5
0.557, 2.761e-5
0.556, 2.754e-5
0.555, 2.747e-5
0.554, 2.742e-5
0.553, 2.735e-5
0.552, 2.729e-5
0.551, 2.722e-5
0.550, 2.715e-5
0.549, 2.709e-5
0.548, 2.701e-5
0.547, 2.694e-5
0.546, 2.686e-5
0.545, 2.678e-5
0.544, 2.671e-5
0.543, 2.661e-5
0.542, 2.654e-5
0.541, 2.645e-5
0.540, 2.635e-5
0.539, 2.626e-5
0.538, 2.614e-5
0.537, 2.605e-5
0.536, 2.594e-5
0.535, 2.584e-5
0.534, 2.573e-5
0.533, 2.561e-5
0.532, 2.550e-5
0.531, 2.537e-5
0.530, 2.525e-5
0.529, 2.512e-5
0.528, 2.498e-5
0.527, 2.485e-5
0.526, 2.470e-5
0.525, 2.459e-5
0.524, 2.442e-5
0.523, 2.425e-5
0.522, 2.410e-5
0.521, 2.392e-5
0.520, 2.375e-5
0.519, 2.357e-5
0.518, 2.337e-5
0.517, 2.320e-5
0.516, 2.297e-5
0.515, 2.277e-5
0.514, 2.257e-5
0.513, 2.232e-5
0.512, 2.208e-5
0.511, 2.184e-5
0.510, 2.161e-5
0.509, 2.138e-5
0.508, 2.108e-5
0.507, 2.085e-5
0.506, 2.055e-5
0.505, 2.027e-5
0.504, 1.998e-5
0.503, 1.965e-5
0.502, 1.936e-5
0.501, 1.900e-5
0.500, 1.869e-5
0.499, 1.838e-5
0.498, 1.796e-5
0.497, 1.762e-5
0.496, 1.720e-5
0.495, 1.680e-5
0.494, 1.639e-5
0.493, 1.594e-5
0.492, 1.553e-5
0.491, 1.499e-5
0.490, 1.457e-5
0.489, 1.411e-5
0.488, 1.356e-5
0.487, 1.302e-5
0.486, 1.241e-5
0.485, 1.196e-5
0.484, 1.137e-5
0.483, 1.073e-5
0.482, 1.022e-5
0.481, 9.489e-6
0.480, 8.940e-6
0.479, 8.268e-6
0.478, 7.499e-6
0.477, 6.916e-6
0.476, 6.081e-6
0.475, 5.380e-6
0.474, 4.719e-6
0.473, 3.851e-6
0.472, 3.150e-6
0.471, 2.162e-6
0.470, 1.388e-6
0.469, 5.603e-7
0.468, -4.843e-7
0.467, -1.241e-6
0.466, -2.397e-6
0.465, -3.240e-6
0.464, -4.166e-6
0.463, -5.320e-6
0.462, -6.185e-6
0.461, -7.254e-6
0.460, -8.373e-6
0.459, -9.465e-6
0.458, -1.069e-5
0.457, -1.168e-5
0.456, -1.298e-5
0.455, -1.411e-5
0.454, -1.535e-5
0.453, -1.669e-5
0.452, -1.771e-5
0.451, -1.922e-5
0.450, -2.036e-5
0.449, -2.173e-5
0.448, -2.284e-5
0.447, -2.416e-5
0.446, -2.580e-5
0.445, -2.695e-5
0.444, -2.848e-5
0.443, -2.999e-5
0.442, -3.114e-5
0.441, -3.290e-5
0.440, -3.405e-5
0.439, -3.562e-5
0.438, -3.718e-5
0.437, -3.823e-5
0.436, -4.015e-5
0.435, -4.174e-5
0.434, -4.296e-5
0.433, -4.459e-5
0.432, -4.567e-5
0.431, -4.749e-5
0.430, -4.858e-5
0.429, -4.997e-5
0.428, -5.154e-5
0.427, -5.258e-5
0.426, -5.435e-5
0.425, -5.527e-5
0.424, -5.678e-5
0.423, -5.802e-5
0.422, -5.869e-5
0.421, -6.044e-5
0.420, -6.146e-5
0.419, -6.256e-5
0.418, -6.395e-5
0.417, -6.468e-5
0.416, -6.600e-5
0.415, -6.687e-5
0.414, -6.796e-5
0.413, -6.902e-5
0.412, -6.958e-5
0.411, -7.081e-5
0.410, -7.023e-5
0.409, -7.146e-5
0.408, -7.257e-5
0.407, -7.317e-5
0.406, -7.425e-5
0.405, -7.462e-5
0.404, -7.534e-5
0.403, -7.617e-5
0.402, -7.639e-5
0.401, -7.699e-5
0.400, -7.727e-5
0.399, -7.782e-5
0.398, -7.832e-5
0.397, -7.800e-5
0.396, -7.868e-5
0.395, -7.880e-5
0.394, -7.903e-5
0.393, -7.949e-5
0.392, -7.928e-5
0.391, -7.975e-5
0.390, -7.955e-5
0.389, -7.957e-5
0.388, -7.970e-5
0.387, -7.946e-5
0.386, -7.964e-5
0.385, -7.933e-5
0.384, -7.961e-5
0.383, -7.933e-5
0.382, -7.896e-5
0.381, -7.887e-5
0.380, -7.850e-5
0.379, -7.833e-5
0.378, -7.805e-5
0.377, -7.762e-5
0.376, -7.741e-5
0.375, -7.704e-5
0.374, -7.665e-5
0.373, -7.635e-5
0.372, -7.584e-5
0.371, -7.544e-5
0.370, -7.505e-5
0.369, -7.464e-5
0.368, -7.425e-5
0.367, -7.375e-5
0.366, -7.338e-5
0.365, -7.280e-5
0.364, -7.237e-5
0.363, -7.197e-5
0.362, -7.136e-5
0.361, -7.095e-5
0.360, -7.042e-5
0.359, -6.987e-5
0.358, -6.947e-5
0.357, -6.882e-5
0.356, -6.842e-5
0.355, -6.788e-5
0.354, -6.732e-5
0.353, -6.685e-5
0.352, -6.628e-5
0.351, -6.584e-5
0.350, -6.528e-5
0.349, -6.473e-5
0.348, -6.428e-5
0.347, -6.370e-5
0.346, -6.315e-5
0.345, -6.267e-5
0.344, -6.213e-5
0.343, -6.169e-5
0.342, -6.114e-5
0.341, -6.066e-5
0.340, -6.020e-5
0.339, -5.963e-5
0.338, -5.918e-5
0.337, -5.866e-5
0.336, -5.820e-5
0.335, -5.771e-5
0.334, -5.721e-5
0.333, -5.682e-5
0.332, -5.631e-5
0.331, -5.585e-5
0.330, -5.537e-5
0.329, -5.491e-5
0.328, -5.448e-5
0.327, -5.400e-5
0.326, -5.358e-5
0.325, -5.312e-5
0.324, -5.269e-5
0.323, -5.228e-5
0.322, -5.182e-5
0.321, -5.143e-5
0.320, -5.097e-5
0.319, -5.058e-5
0.318, -5.020e-5
0.317, -4.977e-5
0.316, -4.940e-5
0.315, -4.900e-5
0.314, -4.860e-5
0.313, -4.825e-5
0.312, -4.785e-5
0.311, -4.749e-5
0.310, -4.713e-5
0.309, -4.675e-5
0.308, -4.641e-5
0.307, -4.606e-5
0.306, -4.570e-5
0.305, -4.536e-5
0.304, -4.501e-5
0.303, -4.469e-5
0.302, -4.435e-5
0.301, -4.402e-5
0.300, -4.370e-5
0.299, -4.337e-5
0.298, -4.307e-5
0.297, -4.274e-5
0.296, -4.244e-5
0.295, -4.214e-5
0.294, -4.182e-5
0.293, -4.154e-5
0.292, -4.124e-5
0.291, -4.096e-5
0.290, -4.068e-5
0.289, -4.040e-5
0.288, -4.012e-5
0.287, -3.985e-5
0.286, -3.958e-5
0.285, -3.932e-5
0.284, -3.905e-5
0.283, -3.880e-5
0.282, -3.854e-5
0.281, -3.829e-5
0.280, -3.804e-5
0.279, -3.779e-5
0.278, -3.755e-5
0.277, -3.730e-5
0.276, -3.707e-5
0.275, -3.684e-5
0.274, -3.659e-5
0.273, -3.638e-5
0.272, -3.615e-5
0.271, -3.593e-5
0.270, -3.572e-5
0.269, -3.548e-5
0.268, -3.528e-5
0.267, -3.507e-5
0.266, -3.486e-5
0.265, -3.467e-5
0.264, -3.445e-5
0.263, -3.425e-5
0.262, -3.405e-5
0.261, -3.385e-5
0.260, -3.366e-5
0.259, -3.346e-5
0.258, -3.328e-5
0.257, -3.309e-5
0.256, -3.290e-5
0.255, -3.273e-5
0.254, -3.254e-5
0.253, -3.236e-5
0.252, -3.219e-5
0.251, -3.201e-5
0.250, -3.184e-5
0.249, -3.166e-5
0.248, -3.150e-5
0.247, -3.133e-5
0.246, -3.116e-5
0.245, -3.100e-5
0.244, -3.083e-5
0.243, -3.067e-5
0.242, -3.051e-5
0.241, -3.035e-5
0.240, -3.020e-5
0.239, -3.004e-5
0.238, -2.989e-5
0.237, -2.974e-5
0.236, -2.959e-5
0.235, -2.945e-5
0.234, -2.930e-5
0.233, -2.917e-5
0.232, -2.902e-5
0.231, -2.888e-5
0.230, -2.875e-5
0.229, -2.861e-5
0.228, -2.847e-5
0.227, -2.834e-5
0.226, -2.819e-5
0.225, -2.807e-5
0.224, -2.793e-5
0.223, -2.781e-5
0.222, -2.768e-5
0.221, -2.754e-5
0.220, -2.742e-5
0.219, -2.729e-5
0.218, -2.716e-5
0.217, -2.704e-5
0.216, -2.692e-5
0.215, -2.681e-5
0.214, -2.668e-5
0.213, -2.657e-5
0.212, -2.645e-5
0.211, -2.633e-5
0.210, -2.622e-5
0.209, -2.610e-5
0.208, -2.599e-5
0.207, -2.588e-5
0.206, -2.577e-5
0.205, -2.565e-5
0.204, -2.555e-5
0.203, -2.544e-5
0.202, -2.534e-5
0.201, -2.523e-5
0.200, -2.513e-5
0.199, -2.502e-5
0.198, -2.492e-5
0.197, -2.482e-5
0.196, -2.472e-5
0.195, -2.462e-5
0.194, -2.451e-5
0.193, -2.442e-5
0.192, -2.432e-5
0.191, -2.422e-5
0.190, -2.413e-5
0.189, -2.403e-5
0.188, -2.394e-5
0.187, -2.385e-5
0.186, -2.375e-5
0.185, -2.366e-5
0.184, -2.356e-5
0.183, -2.347e-5
0.182, -2.338e-5
0.181, -2.329e-5
0.180, -2.321e-5
0.179, -2.312e-5
0.178, -2.303e-5
0.177, -2.294e-5
0.176, -2.285e-5
0.175, -2.277e-5
0.174, -2.268e-5
0.173, -2.260e-5
0.172, -2.252e-5
0.171, -2.243e-5
0.170, -2.235e-5
0.169, -2.227e-5
0.168, -2.219e-5
0.167, -2.211e-5
0.166, -2.203e-5
0.165, -2.195e-5
0.164, -2.187e-5
0.163, -2.179e-5
0.162, -2.172e-5
0.161, -2.164e-5
0.160, -2.157e-5
0.159, -2.149e-5
0.158, -2.142e-5
0.157, -2.135e-5
0.156, -2.127e-5
0.155, -2.120e-5
0.154, -2.113e-5
0.153, -2.106e-5
0.152, -2.099e-5
0.151, -2.091e-5
0.150, -2.084e-5
0.149, -2.077e-5
0.148, -2.070e-5
0.147, -2.063e-5
0.146, -2.056e-5
0.145, -2.050e-5
0.144, -2.043e-5
0.143, -2.036e-5
0.142, -2.030e-5
0.141, -2.022e-5
0.140, -2.017e-5
0.139, -2.010e-5
0.138, -2.004e-5
0.137, -1.998e-5
0.136, -1.991e-5
0.135, -1.985e-5
0.134, -1.978e-5
0.133, -1.972e-5
0.132, -1.967e-5
0.131, -1.960e-5
0.130, -1.955e-5
0.129, -1.948e-5
0.128, -1.943e-5
0.127, -1.937e-5
0.126, -1.930e-5
0.125, -1.925e-5
0.124, -1.918e-5
0.123, -1.913e-5
0.122, -1.907e-5
0.121, -1.901e-5
0.120, -1.896e-5
0.119, -1.890e-5
0.118, -1.885e-5
0.117, -1.879e-5
0.116, -1.873e-5
0.115, -1.868e-5
0.114, -1.862e-5
0.113, -1.857e-5
0.112, -1.852e-5
0.111, -1.846e-5
0.110, -1.842e-5
0.109, -1.836e-5
0.108, -1.831e-5
0.107, -1.826e-5
0.106, -1.820e-5
0.105, -1.816e-5
0.104, -1.810e-5
0.103, -1.806e-5
0.102, -1.801e-5
0.101, -1.795e-5
0.100, -1.791e-5
0.099, -1.786e-5
0.098, -1.781e-5
0.097, -1.776e-5
0.096, -1.771e-5
0.095, -1.767e-5
0.094, -1.762e-5
0.093, -1.757e-5
0.092, -1.753e-5
0.091, -1.748e-5
0.090, -1.743e-5
0.089, -1.739e-5
0.088, -1.735e-5
0.087, -1.730e-5
0.086, -1.725e-5
0.085, -1.721e-5
0.084, -1.717e-5
0.083, -1.712e-5
0.082, -1.708e-5
0.081, -1.704e-5
0.080, -1.700e-5
0.079, -1.695e-5
0.078, -1.691e-5
0.077, -1.688e-5
0.076, -1.683e-5
0.075, -1.679e-5
0.074, -1.674e-5
0.073, -1.671e-5
0.072, -1.667e-5
0.071, -1.662e-5
0.070, -1.659e-5
0.069, -1.655e-5
0.068, -1.651e-5
0.067, -1.647e-5
0.066, -1.643e-5
0.065, -1.640e-5
0.064, -1.635e-5
0.063, -1.632e-5
0.062, -1.628e-5
0.061, -1.624e-5
0.060, -1.621e-5
0.059, -1.617e-5
0.058, -1.613e-5
0.057, -1.610e-5
0.056, -1.606e-5
0.055, -1.603e-5
0.054, -1.599e-5
0.053, -1.596e-5
0.052, -1.593e-5
0.051, -1.589e-5
0.050, -1.586e-5
0.049, -1.582e-5
0.048, -1.579e-5
0.047, -1.576e-5
0.046, -1.572e-5
0.045, -1.569e-5
0.044, -1.566e-5
0.043, -1.562e-5
0.042, -1.559e-5
0.041, -1.556e-5
0.040, -1.553e-5
0.039, -1.549e-5
0.038, -1.547e-5
0.037, -1.544e-5
0.036, -1.541e-5
0.035, -1.538e-5
0.034, -1.535e-5
0.033, -1.532e-5
0.032, -1.529e-5
0.031, -1.526e-5
0.030, -1.524e-5
0.029, -1.520e-5
0.028, -1.518e-5
0.027, -1.515e-5
0.026, -1.512e-5
0.025, -1.510e-5
0.024, -1.507e-5
0.023, -1.505e-5
0.022, -1.502e-5
0.021, -1.499e-5
0.020, -1.497e-5
0.019, -1.494e-5
0.018, -1.492e-5
0.017, -1.490e-5
0.016, -1.486e-5
0.015, -1.485e-5
0.014, -1.482e-5
0.013, -1.479e-5
0.012, -1.477e-5
0.011, -1.474e-5
0.010, -1.473e-5
0.009, -1.470e-5
0.008, -1.468e-5
0.007, -1.466e-5
0.006, -1.463e-5
0.005, -1.462e-5
0.004, -1.459e-5
0.003, -1.458e-5
0.002, -1.455e-5
0.001, -1.453e-5
